Date	Time	FMG1	FMG2	FMG3	FMG4	FMG5	FMG6	FMG7	FMG8	IMU1	IMU2	IMU3	IMU4	IMU5	IMU6	IMU7	IMU8	IMU9	EMG1	EMG2	EMG3	EMG4	TTL1	TTL2	TTL3	TTL4							
8/25/2022	3:56:52 PM	103760.000000	175556.000000	34119.000000	54234.000000	30774.000000	64684.000000	49654.000000	80643.000000	788.000000	-7004.000000	-4092.000000	28.000000	22.000000	1.000000	-41.000000	-330.000000	-59.000000	0.131836	0.195312	0.273437	0.034180	0.000000	0.000000	0.000000	0.000000
8/25/2022	3:56:52 PM	104837.000000	173636.000000	34235.000000	54447.000000	30698.000000	63428.000000	49149.000000	81831.000000	851.000000	-7021.000000	-4130.000000	26.000000	34.000000	-21.000000	-44.000000	-331.000000	-57.000000	0.122070	0.190430	0.283203	0.034180	0.000000	0.000000	0.000000	0.000000
8/25/2022	3:56:52 PM	103760.000000	175003.000000	34109.000000	54340.000000	30774.000000	63866.000000	49084.000000	82745.000000	855.000000	-7016.000000	-4141.000000	28.000000	26.000000	8.000000	-46.000000	-331.000000	-53.000000	0.117187	0.200195	0.283203	0.039062	0.000000	0.000000	0.000000	0.000000
8/25/2022	3:56:52 PM	103954.000000	175556.000000	34150.000000	54661.000000	30877.000000	64608.000000	48697.000000	82255.000000	798.000000	-7028.000000	-4120.000000	27.000000	66.000000	12.000000	-43.000000	-332.000000	-56.000000	0.112305	0.190430	0.283203	0.029297	0.000000	0.000000	0.000000	0.000000
8/25/2022	3:56:52 PM	103566.000000	176112.000000	34245.000000	54340.000000	30783.000000	64050.000000	48718.000000	82377.000000	849.000000	-7013.000000	-4107.000000	45.000000	8.000000	-5.000000	-40.000000	-339.000000	-64.000000	0.102539	0.200195	0.283203	0.034180	0.000000	0.000000	0.000000	0.000000
8/25/2022	3:56:52 PM	105333.000000	175556.000000	34224.000000	53945.000000	30800.000000	64986.000000	48825.000000	82868.000000	796.000000	-7015.000000	-4085.000000	36.000000	23.000000	-10.000000	-40.000000	-340.000000	-62.000000	0.107422	0.200195	0.278320	0.034180	0.000000	0.000000	0.000000	0.000000
8/25/2022	3:56:52 PM	104738.000000	175003.000000	34362.000000	54208.000000	30808.000000	64684.000000	49041.000000	83491.000000	777.000000	-7024.000000	-4132.000000	28.000000	43.000000	-18.000000	-37.000000	-335.000000	-59.000000	0.107422	0.209961	0.278320	0.043945	0.000000	0.000000	0.000000	0.000000
8/25/2022	3:56:52 PM	104149.000000	175003.000000	34394.000000	54394.000000	30647.000000	64161.000000	48933.000000	84507.000000	836.000000	-7018.000000	-4083.000000	42.000000	24.000000	-19.000000	-36.000000	-333.000000	-63.000000	0.107422	0.200195	0.273437	0.039062	0.000000	0.000000	0.000000	0.000000
8/25/2022	3:56:52 PM	103760.000000	175003.000000	34404.000000	53840.000000	30512.000000	63829.000000	49171.000000	84571.000000	856.000000	-7028.000000	-4111.000000	51.000000	6.000000	-13.000000	-35.000000	-336.000000	-72.000000	0.107422	0.205078	0.273437	0.039062	0.000000	0.000000	0.000000	0.000000
8/25/2022	3:56:52 PM	104639.000000	175834.000000	34287.000000	53997.000000	30504.000000	64272.000000	48825.000000	84959.000000	870.000000	-7009.000000	-4093.000000	3.000000	72.000000	-3.000000	-35.000000	-332.000000	-73.000000	0.117187	0.200195	0.268555	0.039062	0.000000	0.000000	0.000000	0.000000
8/25/2022	3:56:52 PM	103857.000000	175834.000000	34214.000000	53945.000000	30470.000000	63501.000000	49632.000000	84959.000000	860.000000	-7010.000000	-4104.000000	61.000000	-8.000000	-3.000000	-37.000000	-327.000000	-71.000000	0.107422	0.200195	0.273437	0.034180	0.000000	0.000000	0.000000	0.000000
8/25/2022	3:56:52 PM	104051.000000	175556.000000	34404.000000	54261.000000	30437.000000	63902.000000	49346.000000	84636.000000	747.000000	-7031.000000	-4104.000000	6.000000	100.000000	-9.000000	-49.000000	-327.000000	-68.000000	0.102539	0.195312	0.268555	0.034180	0.000000	0.000000	0.000000	0.000000
8/25/2022	3:56:52 PM	104936.000000	176392.000000	34298.000000	54234.000000	30521.000000	64646.000000	49544.000000	84123.000000	819.000000	-7045.000000	-4159.000000	30.000000	16.000000	-51.000000	-49.000000	-331.000000	-59.000000	0.102539	0.195312	0.268555	0.034180	0.000000	0.000000	0.000000	0.000000
8/25/2022	3:56:52 PM	104541.000000	176392.000000	34458.000000	54050.000000	30563.000000	66186.000000	49632.000000	82316.000000	838.000000	-7027.000000	-4093.000000	44.000000	-11.000000	-37.000000	-34.000000	-329.000000	-69.000000	0.097656	0.195312	0.268555	0.034180	0.000000	0.000000	0.000000	0.000000
8/25/2022	3:56:52 PM	104541.000000	175834.000000	34235.000000	54634.000000	30546.000000	67268.000000	49214.000000	84059.000000	976.000000	-6990.000000	-4053.000000	55.000000	33.000000	-42.000000	-43.000000	-330.000000	-74.000000	0.102539	0.195312	0.273437	0.034180	0.000000	0.000000	0.000000	0.000000
8/25/2022	3:56:52 PM	104246.000000	175556.000000	34245.000000	54931.000000	30321.000000	66463.000000	49324.000000	82992.000000	950.000000	-7030.000000	-4049.000000	8.000000	-34.000000	23.000000	-46.000000	-332.000000	-71.000000	0.107422	0.200195	0.278320	0.034180	0.000000	0.000000	0.000000	0.000000
8/25/2022	3:56:52 PM	104246.000000	175279.000000	34130.000000	54877.000000	30370.000000	65139.000000	48868.000000	82499.000000	818.000000	-6997.000000	-4140.000000	-15.000000	88.000000	25.000000	-32.000000	-333.000000	-74.000000	0.102539	0.185547	0.263672	0.034180	0.000000	0.000000	0.000000	0.000000
8/25/2022	3:56:53 PM	104738.000000	175003.000000	34277.000000	54823.000000	30404.000000	64608.000000	49411.000000	83617.000000	867.000000	-7030.000000	-4183.000000	35.000000	39.000000	38.000000	-33.000000	-338.000000	-71.000000	0.117187	0.190430	0.268555	0.034180	0.000000	0.000000	0.000000	0.000000
8/25/2022	3:56:53 PM	104442.000000	175003.000000	34130.000000	54527.000000	30279.000000	65062.000000	49280.000000	82684.000000	797.000000	-7009.000000	-4101.000000	40.000000	46.000000	7.000000	-30.000000	-337.000000	-64.000000	0.117187	0.200195	0.268555	0.034180	0.000000	0.000000	0.000000	0.000000
8/25/2022	3:56:53 PM	105433.000000	175834.000000	34015.000000	54581.000000	30504.000000	64684.000000	49236.000000	82561.000000	783.000000	-7021.000000	-4068.000000	26.000000	18.000000	-10.000000	-31.000000	-328.000000	-64.000000	0.122070	0.195312	0.268555	0.034180	0.000000	0.000000	0.000000	0.000000
8/25/2022	3:56:53 PM	104936.000000	175003.000000	34235.000000	54340.000000	30521.000000	64910.000000	48675.000000	81771.000000	884.000000	-7012.000000	-4082.000000	29.000000	-8.000000	-19.000000	-38.000000	-335.000000	-70.000000	0.112305	0.195312	0.263672	0.039062	0.000000	0.000000	0.000000	0.000000
8/25/2022	3:56:53 PM	105134.000000	176672.000000	34277.000000	54314.000000	30605.000000	65523.000000	48590.000000	82073.000000	938.000000	-7003.000000	-4179.000000	28.000000	25.000000	-7.000000	-38.000000	-340.000000	-70.000000	0.112305	0.190430	0.273437	0.034180	0.000000	0.000000	0.000000	0.000000
8/25/2022	3:56:53 PM	105533.000000	175834.000000	34511.000000	54155.000000	30487.000000	64235.000000	48697.000000	81771.000000	834.000000	-7008.000000	-4202.000000	58.000000	79.000000	6.000000	-33.000000	-332.000000	-69.000000	0.097656	0.195312	0.268555	0.034180	0.000000	0.000000	0.000000	0.000000
8/25/2022	3:56:53 PM	104541.000000	173908.000000	34287.000000	54261.000000	30563.000000	64124.000000	49193.000000	82133.000000	882.000000	-6997.000000	-4327.000000	100.000000	72.000000	-9.000000	-24.000000	-339.000000	-73.000000	0.122070	0.209961	0.268555	0.034180	0.000000	0.000000	0.000000	0.000000
8/25/2022	3:56:53 PM	105734.000000	175556.000000	34351.000000	54581.000000	30647.000000	65177.000000	48804.000000	82073.000000	974.000000	-6991.000000	-4585.000000	231.000000	59.000000	-19.000000	-21.000000	-338.000000	-68.000000	0.117187	0.209961	0.268555	0.029297	0.000000	0.000000	0.000000	0.000000
8/25/2022	3:56:53 PM	104442.000000	174454.000000	34266.000000	54314.000000	30579.000000	65484.000000	49302.000000	81233.000000	675.000000	-7067.000000	-4504.000000	418.000000	182.000000	-2.000000	-27.000000	-329.000000	-62.000000	0.107422	0.209961	0.263672	0.039062	0.000000	0.000000	0.000000	0.000000
8/25/2022	3:56:53 PM	104149.000000	174728.000000	34362.000000	54554.000000	30706.000000	65561.000000	48825.000000	81411.000000	994.000000	-7103.000000	-4180.000000	506.000000	102.000000	-65.000000	-34.000000	-328.000000	-63.000000	0.117187	0.209961	0.268555	0.039062	0.000000	0.000000	0.000000	0.000000
8/25/2022	3:56:53 PM	103954.000000	174180.000000	34956.000000	54261.000000	30420.000000	69585.000000	49236.000000	81711.000000	905.000000	-7161.000000	-3899.000000	640.000000	45.000000	-7.000000	-34.000000	-333.000000	-62.000000	0.107422	0.200195	0.263672	0.029297	0.000000	0.000000	0.000000	0.000000
8/25/2022	3:56:53 PM	103760.000000	175556.000000	35189.000000	54394.000000	30664.000000	69023.000000	49346.000000	82745.000000	1005.000000	-7204.000000	-3803.000000	625.000000	111.000000	-17.000000	-34.000000	-330.000000	-71.000000	0.112305	0.224609	0.273437	0.039062	0.000000	0.000000	0.000000	0.000000
8/25/2022	3:56:53 PM	104936.000000	175834.000000	35300.000000	54234.000000	30817.000000	69238.000000	49588.000000	83491.000000	996.000000	-7297.000000	-3597.000000	713.000000	20.000000	12.000000	-38.000000	-325.000000	-80.000000	0.126953	0.214844	0.278320	0.039062	0.000000	0.000000	0.000000	0.000000
8/25/2022	3:56:53 PM	104639.000000	175279.000000	35379.000000	54340.000000	30868.000000	70111.000000	50650.000000	84700.000000	903.000000	-7389.000000	-3267.000000	676.000000	128.000000	12.000000	-42.000000	-328.000000	-73.000000	0.122070	0.214844	0.273437	0.034180	0.000000	0.000000	0.000000	0.000000
8/25/2022	3:56:53 PM	104442.000000	175279.000000	35334.000000	54340.000000	31128.000000	69803.000000	50696.000000	84379.000000	934.000000	-7454.000000	-2879.000000	598.000000	101.000000	-7.000000	-42.000000	-327.000000	-73.000000	0.126953	0.219727	0.283203	0.034180	0.000000	0.000000	0.000000	0.000000
8/25/2022	3:56:53 PM	105134.000000	175834.000000	35629.000000	54367.000000	31543.000000	70512.000000	50743.000000	84636.000000	948.000000	-7546.000000	-2665.000000	541.000000	-30.000000	2.000000	-42.000000	-323.000000	-78.000000	0.122070	0.209961	0.273437	0.039062	0.000000	0.000000	0.000000	0.000000
8/25/2022	3:56:53 PM	104738.000000	177236.000000	35583.000000	54367.000000	31093.000000	70378.000000	50929.000000	84700.000000	855.000000	-7612.000000	-2613.000000	418.000000	-80.000000	21.000000	-42.000000	-320.000000	-79.000000	0.146484	0.234375	0.273437	0.048828	0.000000	0.000000	0.000000	0.000000
8/25/2022	3:56:53 PM	103663.000000	175556.000000	35652.000000	54050.000000	31110.000000	70646.000000	50952.000000	84700.000000	976.000000	-7599.000000	-2742.000000	302.000000	99.000000	8.000000	-43.000000	-311.000000	-87.000000	0.131836	0.229492	0.278320	0.043945	0.000000	0.000000	0.000000	0.000000
8/25/2022	3:56:53 PM	104738.000000	174180.000000	36056.000000	54447.000000	31498.000000	70333.000000	50489.000000	83428.000000	901.000000	-7612.000000	-2701.000000	225.000000	121.000000	29.000000	-38.000000	-312.000000	-80.000000	0.117187	0.224609	0.273437	0.039062	0.000000	0.000000	0.000000	0.000000
8/25/2022	3:56:53 PM	104149.000000	174454.000000	35882.000000	53736.000000	31436.000000	70557.000000	50719.000000	83617.000000	906.000000	-7636.000000	-2682.000000	200.000000	-18.000000	-11.000000	-36.000000	-320.000000	-78.000000	0.112305	0.224609	0.278320	0.048828	0.000000	0.000000	0.000000	0.000000
8/25/2022	3:56:54 PM	104837.000000	173908.000000	35998.000000	53581.000000	31110.000000	70646.000000	50650.000000	85416.000000	943.000000	-7648.000000	-2621.000000	148.000000	-46.000000	7.000000	-38.000000	-316.000000	-89.000000	0.107422	0.229492	0.278320	0.039062	0.000000	0.000000	0.000000	0.000000
8/25/2022	3:56:54 PM	105035.000000	173095.000000	36021.000000	54050.000000	31427.000000	70023.000000	51352.000000	84507.000000	923.000000	-7670.000000	-2513.000000	73.000000	-4.000000	11.000000	-35.000000	-308.000000	-93.000000	0.112305	0.239258	0.288086	0.053711	0.000000	0.000000	0.000000	0.000000
8/25/2022	3:56:54 PM	103470.000000	174728.000000	35766.000000	54340.000000	31294.000000	71144.000000	51376.000000	84123.000000	933.000000	-7672.000000	-2597.000000	9.000000	31.000000	10.000000	-41.000000	-312.000000	-90.000000	0.122070	0.234375	0.283203	0.048828	0.000000	0.000000	0.000000	0.000000
8/25/2022	3:56:54 PM	104149.000000	173908.000000	35766.000000	54102.000000	31347.000000	71053.000000	51257.000000	84251.000000	953.000000	-7623.000000	-2665.000000	-13.000000	43.000000	18.000000	-45.000000	-322.000000	-81.000000	0.126953	0.229492	0.288086	0.058594	0.000000	0.000000	0.000000	0.000000
8/25/2022	3:56:54 PM	104246.000000	175279.000000	36021.000000	54129.000000	31696.000000	70917.000000	51471.000000	84379.000000	904.000000	-7669.000000	-2553.000000	-68.000000	34.000000	13.000000	-38.000000	-319.000000	-83.000000	0.122070	0.219727	0.283203	0.048828	0.000000	0.000000	0.000000	0.000000
8/25/2022	3:56:54 PM	105035.000000	173908.000000	36033.000000	54102.000000	31814.000000	71098.000000	51495.000000	85155.000000	810.000000	-7633.000000	-2334.000000	-209.000000	-5.000000	16.000000	-27.000000	-316.000000	-89.000000	0.151367	0.239258	0.288086	0.063477	0.000000	0.000000	0.000000	0.000000
8/25/2022	3:56:54 PM	104837.000000	175279.000000	35835.000000	54182.000000	31905.000000	70467.000000	51880.000000	85482.000000	843.000000	-7653.000000	-2392.000000	-349.000000	4.000000	14.000000	-28.000000	-320.000000	-82.000000	0.136719	0.214844	0.278320	0.048828	0.000000	0.000000	0.000000	0.000000
8/25/2022	3:56:54 PM	106240.000000	175003.000000	36103.000000	54208.000000	31462.000000	70601.000000	51519.000000	84765.000000	798.000000	-7563.000000	-2613.000000	-541.000000	57.000000	26.000000	-31.000000	-322.000000	-72.000000	0.131836	0.205078	0.288086	0.048828	0.000000	0.000000	0.000000	0.000000
8/25/2022	3:56:54 PM	105533.000000	176112.000000	35940.000000	53971.000000	31356.000000	70601.000000	51163.000000	85089.000000	883.000000	-7493.000000	-2743.000000	-630.000000	-7.000000	-2.000000	-36.000000	-321.000000	-73.000000	0.112305	0.195312	0.283203	0.039062	0.000000	0.000000	0.000000	0.000000
8/25/2022	3:56:54 PM	105333.000000	176392.000000	36021.000000	53866.000000	31163.000000	71053.000000	50975.000000	85680.000000	887.000000	-7387.000000	-3334.000000	-758.000000	-26.000000	-10.000000	-50.000000	-319.000000	-74.000000	0.112305	0.205078	0.288086	0.043945	0.000000	0.000000	0.000000	0.000000
8/25/2022	3:56:54 PM	105035.000000	176392.000000	35975.000000	54287.000000	31347.000000	70781.000000	50905.000000	86480.000000	836.000000	-7270.000000	-3404.000000	-694.000000	-100.000000	-22.000000	-51.000000	-313.000000	-71.000000	0.102539	0.209961	0.283203	0.034180	0.000000	0.000000	0.000000	0.000000
8/25/2022	3:56:54 PM	105134.000000	176112.000000	35859.000000	54796.000000	31189.000000	71007.000000	50558.000000	86818.000000	770.000000	-7126.000000	-3714.000000	-774.000000	0.000000	6.000000	-42.000000	-318.000000	-71.000000	0.112305	0.234375	0.292969	0.034180	0.000000	0.000000	0.000000	0.000000
8/25/2022	3:56:54 PM	103086.000000	176392.000000	35812.000000	54796.000000	30723.000000	70557.000000	50329.000000	85746.000000	1014.000000	-7109.000000	-4170.000000	-637.000000	-108.000000	10.000000	-38.000000	-321.000000	-62.000000	0.107422	0.268555	0.292969	0.039062	0.000000	0.000000	0.000000	0.000000
8/25/2022	3:56:54 PM	103857.000000	175556.000000	35674.000000	54634.000000	30395.000000	70557.000000	50147.000000	85024.000000	908.000000	-6999.000000	-4348.000000	-591.000000	-29.000000	41.000000	-40.000000	-328.000000	-63.000000	0.126953	0.302734	0.297852	0.034180	0.000000	0.000000	0.000000	0.000000
8/25/2022	3:56:54 PM	104639.000000	174454.000000	35515.000000	54715.000000	30197.000000	66029.000000	49433.000000	86547.000000	814.000000	-6939.000000	-4432.000000	-463.000000	21.000000	-17.000000	-40.000000	-336.000000	-62.000000	0.126953	0.366211	0.268555	0.043945	0.000000	0.000000	0.000000	0.000000
8/25/2022	3:56:54 PM	103470.000000	176112.000000	35481.000000	54394.000000	29872.000000	66863.000000	49810.000000	86818.000000	948.000000	-6894.000000	-4459.000000	-363.000000	8.000000	-48.000000	-42.000000	-330.000000	-61.000000	0.117187	0.375977	0.288086	0.034180	0.000000	0.000000	0.000000	0.000000
8/25/2022	3:56:54 PM	103857.000000	175556.000000	35122.000000	54234.000000	30132.000000	65872.000000	50466.000000	85746.000000	792.000000	-6891.000000	-4508.000000	-299.000000	-18.000000	-7.000000	-37.000000	-328.000000	-66.000000	0.107422	0.405273	0.283203	0.039062	0.000000	0.000000	0.000000	0.000000
8/25/2022	3:56:54 PM	103760.000000	175834.000000	35144.000000	54554.000000	30026.000000	65716.000000	49788.000000	83996.000000	916.000000	-6818.000000	-4708.000000	-175.000000	-71.000000	-34.000000	-31.000000	-332.000000	-65.000000	0.107422	0.424805	0.288086	0.034180	0.000000	0.000000	0.000000	0.000000
8/25/2022	3:56:54 PM	103566.000000	174454.000000	35256.000000	54340.000000	29985.000000	66623.000000	49499.000000	85285.000000	788.000000	-6853.000000	-4660.000000	-69.000000	15.000000	-8.000000	-30.000000	-335.000000	-64.000000	0.117187	0.424805	0.278320	0.039062	0.000000	0.000000	0.000000	0.000000
8/25/2022	3:56:54 PM	103760.000000	174180.000000	35312.000000	54447.000000	29610.000000	65330.000000	49062.000000	86750.000000	955.000000	-6810.000000	-4486.000000	-26.000000	33.000000	-18.000000	-33.000000	-332.000000	-63.000000	0.107422	0.429687	0.288086	0.034180	0.000000	0.000000	0.000000	0.000000
8/25/2022	3:56:55 PM	104936.000000	174454.000000	35436.000000	54102.000000	29961.000000	65062.000000	48697.000000	86480.000000	856.000000	-6803.000000	-4504.000000	2.000000	85.000000	4.000000	-37.000000	-330.000000	-59.000000	0.092773	0.429687	0.283203	0.029297	0.000000	0.000000	0.000000	0.000000
8/25/2022	3:56:55 PM	104639.000000	174180.000000	35345.000000	54394.000000	29993.000000	65639.000000	48804.000000	86615.000000	795.000000	-6817.000000	-4501.000000	2.000000	146.000000	-18.000000	-37.000000	-336.000000	-59.000000	0.087891	0.415039	0.288086	0.029297	0.000000	0.000000	0.000000	0.000000
8/25/2022	3:56:55 PM	103857.000000	174728.000000	35334.000000	54129.000000	30107.000000	65177.000000	48911.000000	87986.000000	914.000000	-6819.000000	-4410.000000	109.000000	-32.000000	-2.000000	-26.000000	-333.000000	-65.000000	0.107422	0.405273	0.292969	0.029297	0.000000	0.000000	0.000000	0.000000
8/25/2022	3:56:55 PM	103954.000000	174180.000000	35905.000000	54234.000000	29985.000000	65716.000000	48548.000000	87022.000000	915.000000	-6828.000000	-4381.000000	62.000000	0.000000	-6.000000	-25.000000	-335.000000	-65.000000	0.102539	0.375977	0.288086	0.039062	0.000000	0.000000	0.000000	0.000000
8/25/2022	3:56:55 PM	104541.000000	174728.000000	35300.000000	53971.000000	29784.000000	66384.000000	48590.000000	86078.000000	905.000000	-6842.000000	-4378.000000	65.000000	9.000000	19.000000	-36.000000	-340.000000	-60.000000	0.102539	0.385742	0.288086	0.034180	0.000000	0.000000	0.000000	0.000000
8/25/2022	3:56:55 PM	104738.000000	174728.000000	35111.000000	54050.000000	29792.000000	66265.000000	48675.000000	86345.000000	827.000000	-6836.000000	-4398.000000	68.000000	18.000000	6.000000	-35.000000	-342.000000	-62.000000	0.112305	0.375977	0.273437	0.034180	0.000000	0.000000	0.000000	0.000000
8/25/2022	3:56:55 PM	104149.000000	175003.000000	35211.000000	53919.000000	29570.000000	66384.000000	48421.000000	86011.000000	803.000000	-6866.000000	-4471.000000	94.000000	78.000000	3.000000	-28.000000	-338.000000	-64.000000	0.117187	0.371094	0.273437	0.034180	0.000000	0.000000	0.000000	0.000000
8/25/2022	3:56:55 PM	104541.000000	174180.000000	35436.000000	53684.000000	29729.000000	66107.000000	48804.000000	86278.000000	851.000000	-6869.000000	-4449.000000	132.000000	20.000000	-11.000000	-30.000000	-329.000000	-59.000000	0.117187	0.356445	0.288086	0.039062	0.000000	0.000000	0.000000	0.000000
8/25/2022	3:56:55 PM	104246.000000	175003.000000	35334.000000	54155.000000	29500.000000	66743.000000	49084.000000	86145.000000	950.000000	-6869.000000	-4413.000000	169.000000	-23.000000	-8.000000	-35.000000	-332.000000	-59.000000	0.102539	0.336914	0.283203	0.034180	0.000000	0.000000	0.000000	0.000000
8/25/2022	3:56:55 PM	104149.000000	175003.000000	35334.000000	54102.000000	29673.000000	66423.000000	49193.000000	86615.000000	911.000000	-6877.000000	-4272.000000	151.000000	37.000000	-10.000000	-38.000000	-327.000000	-68.000000	0.112305	0.332031	0.283203	0.029297	0.000000	0.000000	0.000000	0.000000
8/25/2022	3:56:55 PM	104051.000000	174454.000000	35503.000000	53892.000000	29618.000000	66423.000000	49855.000000	85945.000000	856.000000	-6904.000000	-4275.000000	158.000000	21.000000	19.000000	-30.000000	-328.000000	-70.000000	0.102539	0.297852	0.288086	0.034180	0.000000	0.000000	0.000000	0.000000
8/25/2022	3:56:55 PM	105035.000000	174180.000000	35244.000000	53840.000000	29697.000000	65794.000000	49721.000000	85878.000000	863.000000	-6921.000000	-4232.000000	113.000000	91.000000	17.000000	-24.000000	-332.000000	-66.000000	0.122070	0.297852	0.292969	0.034180	0.000000	0.000000	0.000000	0.000000
8/25/2022	3:56:55 PM	103566.000000	174454.000000	35323.000000	53452.000000	29953.000000	67926.000000	50079.000000	85812.000000	856.000000	-6954.000000	-4188.000000	146.000000	12.000000	13.000000	-33.000000	-330.000000	-59.000000	0.102539	0.292969	0.292969	0.034180	0.000000	0.000000	0.000000	0.000000
8/25/2022	3:56:55 PM	104246.000000	175834.000000	35323.000000	53736.000000	29768.000000	68301.000000	50079.000000	85285.000000	801.000000	-6978.000000	-4165.000000	105.000000	48.000000	12.000000	-41.000000	-336.000000	-65.000000	0.097656	0.292969	0.288086	0.034180	0.000000	0.000000	0.000000	0.000000
8/25/2022	3:56:55 PM	104149.000000	175834.000000	35323.000000	53866.000000	29673.000000	68639.000000	49810.000000	85220.000000	855.000000	-6957.000000	-4128.000000	140.000000	9.000000	-5.000000	-38.000000	-337.000000	-73.000000	0.092773	0.307617	0.288086	0.034180	0.000000	0.000000	0.000000	0.000000
8/25/2022	3:56:55 PM	104738.000000	175279.000000	35458.000000	53945.000000	29570.000000	66463.000000	50147.000000	85680.000000	829.000000	-6979.000000	-4087.000000	51.000000	41.000000	4.000000	-35.000000	-331.000000	-73.000000	0.102539	0.341797	0.288086	0.039062	0.000000	0.000000	0.000000	0.000000
8/25/2022	3:56:55 PM	104738.000000	175556.000000	35515.000000	53892.000000	29737.000000	65639.000000	49699.000000	85878.000000	906.000000	-6978.000000	-4146.000000	79.000000	-9.000000	-1.000000	-34.000000	-338.000000	-74.000000	0.102539	0.341797	0.288086	0.039062	0.000000	0.000000	0.000000	0.000000
8/25/2022	3:56:55 PM	103760.000000	174728.000000	35583.000000	53452.000000	29864.000000	65639.000000	49855.000000	84700.000000	833.000000	-6997.000000	-4123.000000	32.000000	44.000000	-15.000000	-28.000000	-343.000000	-69.000000	0.097656	0.322266	0.288086	0.039062	0.000000	0.000000	0.000000	0.000000
8/25/2022	3:56:55 PM	103857.000000	173636.000000	35379.000000	53710.000000	29888.000000	66226.000000	49302.000000	85089.000000	933.000000	-6996.000000	-4136.000000	55.000000	12.000000	-2.000000	-32.000000	-337.000000	-70.000000	0.112305	0.297852	0.283203	0.034180	0.000000	0.000000	0.000000	0.000000
8/25/2022	3:56:55 PM	104639.000000	175279.000000	35424.000000	53581.000000	29897.000000	66623.000000	48463.000000	84959.000000	832.000000	-6988.000000	-4187.000000	10.000000	59.000000	-3.000000	-30.000000	-329.000000	-65.000000	0.117187	0.297852	0.292969	0.034180	0.000000	0.000000	0.000000	0.000000
8/25/2022	3:56:56 PM	104442.000000	174454.000000	35312.000000	53503.000000	29848.000000	66503.000000	48675.000000	85482.000000	852.000000	-6983.000000	-4232.000000	86.000000	-2.000000	-18.000000	-28.000000	-328.000000	-57.000000	0.097656	0.273437	0.288086	0.029297	0.000000	0.000000	0.000000	0.000000
8/25/2022	3:56:56 PM	105035.000000	175556.000000	35267.000000	53632.000000	29610.000000	66583.000000	48548.000000	86345.000000	919.000000	-6962.000000	-4107.000000	64.000000	31.000000	-9.000000	-36.000000	-331.000000	-60.000000	0.097656	0.268555	0.292969	0.039062	0.000000	0.000000	0.000000	0.000000
8/25/2022	3:56:56 PM	104541.000000	174180.000000	35100.000000	53788.000000	29649.000000	66463.000000	48569.000000	85548.000000	942.000000	-6984.000000	-4139.000000	52.000000	10.000000	-8.000000	-40.000000	-335.000000	-62.000000	0.092773	0.263672	0.288086	0.034180	0.000000	0.000000	0.000000	0.000000
8/25/2022	3:56:56 PM	104246.000000	174728.000000	35066.000000	53866.000000	29665.000000	66623.000000	48782.000000	84700.000000	849.000000	-6974.000000	-4093.000000	33.000000	31.000000	13.000000	-35.000000	-335.000000	-64.000000	0.087891	0.283203	0.292969	0.039062	0.000000	0.000000	0.000000	0.000000
8/25/2022	3:56:56 PM	104442.000000	175279.000000	35200.000000	54155.000000	29657.000000	66068.000000	49324.000000	84507.000000	883.000000	-7008.000000	-4162.000000	42.000000	23.000000	13.000000	-33.000000	-337.000000	-56.000000	0.117187	0.292969	0.292969	0.039062	0.000000	0.000000	0.000000	0.000000
8/25/2022	3:56:56 PM	103760.000000	174180.000000	35166.000000	53945.000000	29848.000000	66068.000000	49214.000000	84700.000000	843.000000	-7005.000000	-4115.000000	35.000000	40.000000	9.000000	-35.000000	-333.000000	-54.000000	0.102539	0.307617	0.273437	0.039062	0.000000	0.000000	0.000000	0.000000
8/25/2022	3:56:56 PM	104639.000000	173636.000000	35155.000000	54050.000000	29665.000000	66147.000000	49171.000000	85155.000000	930.000000	-6969.000000	-4166.000000	22.000000	3.000000	-8.000000	-37.000000	-335.000000	-65.000000	0.126953	0.317383	0.288086	0.034180	0.000000	0.000000	0.000000	0.000000
8/25/2022	3:56:56 PM	104936.000000	175834.000000	35144.000000	53997.000000	29969.000000	66305.000000	48590.000000	85024.000000	807.000000	-6978.000000	-4156.000000	43.000000	13.000000	-6.000000	-34.000000	-337.000000	-69.000000	0.112305	0.317383	0.292969	0.034180	0.000000	0.000000	0.000000	0.000000
8/25/2022	3:56:56 PM	104639.000000	175556.000000	35200.000000	54261.000000	29977.000000	67105.000000	48890.000000	84830.000000	871.000000	-7008.000000	-4144.000000	37.000000	22.000000	-16.000000	-36.000000	-329.000000	-66.000000	0.107422	0.307617	0.288086	0.034180	0.000000	0.000000	0.000000	0.000000
8/25/2022	3:56:56 PM	104246.000000	175279.000000	35155.000000	54420.000000	29713.000000	67390.000000	49258.000000	84571.000000	848.000000	-6990.000000	-4111.000000	27.000000	12.000000	16.000000	-40.000000	-332.000000	-66.000000	0.102539	0.292969	0.288086	0.039062	0.000000	0.000000	0.000000	0.000000
8/25/2022	3:56:56 PM	104639.000000	175003.000000	35211.000000	54527.000000	29864.000000	67390.000000	48697.000000	85482.000000	926.000000	-6981.000000	-4186.000000	19.000000	8.000000	-3.000000	-30.000000	-338.000000	-68.000000	0.112305	0.278320	0.278320	0.034180	0.000000	0.000000	0.000000	0.000000
8/25/2022	3:56:56 PM	103954.000000	174728.000000	35233.000000	54608.000000	29945.000000	65639.000000	48825.000000	85945.000000	841.000000	-7050.000000	-4198.000000	68.000000	66.000000	14.000000	-25.000000	-337.000000	-68.000000	0.112305	0.258789	0.283203	0.043945	0.000000	0.000000	0.000000	0.000000
8/25/2022	3:56:56 PM	104246.000000	176112.000000	35244.000000	54877.000000	29665.000000	64608.000000	49084.000000	85351.000000	882.000000	-6965.000000	-4161.000000	74.000000	20.000000	33.000000	-37.000000	-330.000000	-71.000000	0.107422	0.234375	0.278320	0.039062	0.000000	0.000000	0.000000	0.000000
8/25/2022	3:56:56 PM	103663.000000	176954.000000	35323.000000	54769.000000	29586.000000	64235.000000	49389.000000	85548.000000	721.000000	-7040.000000	-4088.000000	61.000000	18.000000	16.000000	-40.000000	-327.000000	-65.000000	0.126953	0.253906	0.283203	0.039062	0.000000	0.000000	0.000000	0.000000
8/25/2022	3:56:56 PM	103566.000000	174728.000000	35144.000000	54208.000000	29531.000000	64087.000000	49302.000000	85548.000000	769.000000	-6978.000000	-4036.000000	61.000000	-19.000000	12.000000	-33.000000	-329.000000	-63.000000	0.112305	0.239258	0.283203	0.034180	0.000000	0.000000	0.000000	0.000000
8/25/2022	3:56:56 PM	102705.000000	175003.000000	35100.000000	54182.000000	29594.000000	63428.000000	48421.000000	86278.000000	851.000000	-7027.000000	-4036.000000	-1.000000	-16.000000	-32.000000	-36.000000	-331.000000	-68.000000	0.107422	0.249023	0.288086	0.039062	0.000000	0.000000	0.000000	0.000000
8/25/2022	3:56:56 PM	103857.000000	174454.000000	35189.000000	54261.000000	29570.000000	63829.000000	48274.000000	85548.000000	944.000000	-7016.000000	-4075.000000	15.000000	-38.000000	27.000000	-34.000000	-338.000000	-69.000000	0.112305	0.229492	0.283203	0.034180	0.000000	0.000000	0.000000	0.000000
8/25/2022	3:56:56 PM	103182.000000	175003.000000	35022.000000	54500.000000	29626.000000	63033.000000	48400.000000	85945.000000	831.000000	-7031.000000	-4181.000000	-33.000000	39.000000	29.000000	-26.000000	-338.000000	-70.000000	0.117187	0.234375	0.268555	0.039062	0.000000	0.000000	0.000000	0.000000
8/25/2022	3:56:56 PM	103470.000000	175003.000000	35244.000000	54340.000000	29641.000000	63356.000000	47694.000000	86818.000000	726.000000	-7041.000000	-4162.000000	52.000000	16.000000	51.000000	-27.000000	-335.000000	-69.000000	0.112305	0.224609	0.268555	0.034180	0.000000	0.000000	0.000000	0.000000
8/25/2022	3:56:56 PM	104051.000000	174454.000000	35166.000000	54715.000000	29437.000000	62748.000000	47612.000000	85614.000000	681.000000	-7022.000000	-4120.000000	30.000000	49.000000	7.000000	-34.000000	-337.000000	-65.000000	0.112305	0.239258	0.278320	0.029297	0.000000	0.000000	0.000000	0.000000
8/25/2022	3:56:57 PM	103857.000000	173365.000000	35166.000000	54474.000000	29422.000000	63033.000000	48358.000000	86145.000000	732.000000	-7031.000000	-4165.000000	28.000000	-1.000000	-21.000000	-32.000000	-335.000000	-63.000000	0.102539	0.253906	0.288086	0.029297	0.000000	0.000000	0.000000	0.000000
8/25/2022	3:56:57 PM	104149.000000	174454.000000	35078.000000	54155.000000	29570.000000	63033.000000	48148.000000	86345.000000	801.000000	-6948.000000	-4117.000000	58.000000	-9.000000	-33.000000	-27.000000	-326.000000	-65.000000	0.117187	0.244141	0.273437	0.034180	0.000000	0.000000	0.000000	0.000000
8/25/2022	3:56:57 PM	103857.000000	174180.000000	35122.000000	54474.000000	29523.000000	62712.000000	47530.000000	85614.000000	905.000000	-6999.000000	-4169.000000	6.000000	49.000000	-23.000000	-35.000000	-329.000000	-66.000000	0.112305	0.249023	0.288086	0.034180	0.000000	0.000000	0.000000	0.000000
8/25/2022	3:56:57 PM	103954.000000	174454.000000	34989.000000	54823.000000	29673.000000	63392.000000	47837.000000	86212.000000	834.000000	-6999.000000	-4096.000000	55.000000	9.000000	7.000000	-41.000000	-331.000000	-70.000000	0.102539	0.244141	0.273437	0.039062	0.000000	0.000000	0.000000	0.000000
8/25/2022	3:56:57 PM	103566.000000	174728.000000	35033.000000	54447.000000	29523.000000	62890.000000	47714.000000	86145.000000	882.000000	-6999.000000	-4154.000000	20.000000	67.000000	-3.000000	-47.000000	-335.000000	-70.000000	0.117187	0.249023	0.268555	0.034180	0.000000	0.000000	0.000000	0.000000
8/25/2022	3:56:57 PM	104936.000000	174728.000000	34912.000000	54420.000000	29649.000000	63212.000000	46968.000000	86078.000000	697.000000	-7023.000000	-4141.000000	50.000000	26.000000	17.000000	-46.000000	-333.000000	-65.000000	0.107422	0.229492	0.278320	0.034180	0.000000	0.000000	0.000000	0.000000
8/25/2022	3:56:57 PM	105835.000000	175279.000000	34901.000000	54500.000000	29808.000000	63068.000000	46988.000000	87022.000000	813.000000	-7011.000000	-4143.000000	26.000000	17.000000	-27.000000	-31.000000	-328.000000	-63.000000	0.112305	0.229492	0.278320	0.039062	0.000000	0.000000	0.000000	0.000000
8/25/2022	3:56:57 PM	105134.000000	175003.000000	34879.000000	54340.000000	29697.000000	62186.000000	47067.000000	86547.000000	762.000000	-7021.000000	-4128.000000	58.000000	15.000000	-6.000000	-28.000000	-329.000000	-65.000000	0.107422	0.234375	0.268555	0.029297	0.000000	0.000000	0.000000	0.000000
8/25/2022	3:56:57 PM	105734.000000	175556.000000	34879.000000	53945.000000	29681.000000	63719.000000	47612.000000	86413.000000	907.000000	-7008.000000	-4157.000000	40.000000	5.000000	-28.000000	-27.000000	-331.000000	-66.000000	0.097656	0.239258	0.273437	0.034180	0.000000	0.000000	0.000000	0.000000
8/25/2022	3:56:57 PM	106443.000000	175003.000000	34857.000000	54447.000000	29856.000000	63176.000000	47796.000000	86345.000000	837.000000	-6988.000000	-4085.000000	71.000000	33.000000	21.000000	-24.000000	-330.000000	-68.000000	0.117187	0.253906	0.283203	0.034180	0.000000	0.000000	0.000000	0.000000
8/25/2022	3:56:57 PM	104541.000000	174454.000000	34879.000000	54261.000000	29768.000000	64050.000000	47389.000000	85945.000000	841.000000	-7033.000000	-4135.000000	45.000000	11.000000	14.000000	-33.000000	-330.000000	-65.000000	0.107422	0.244141	0.283203	0.034180	0.000000	0.000000	0.000000	0.000000
8/25/2022	3:56:57 PM	103954.000000	175279.000000	35111.000000	53919.000000	29897.000000	64309.000000	47571.000000	85746.000000	900.000000	-6998.000000	-4070.000000	82.000000	-23.000000	49.000000	-45.000000	-330.000000	-69.000000	0.131836	0.244141	0.273437	0.034180	0.000000	0.000000	0.000000	0.000000
8/25/2022	3:56:57 PM	103954.000000	174454.000000	34967.000000	54023.000000	29586.000000	63392.000000	47673.000000	86278.000000	695.000000	-7019.000000	-4068.000000	21.000000	35.000000	53.000000	-42.000000	-332.000000	-63.000000	0.136719	0.234375	0.268555	0.034180	0.000000	0.000000	0.000000	0.000000
8/25/2022	3:56:57 PM	104051.000000	174454.000000	34868.000000	54050.000000	29665.000000	63573.000000	48044.000000	86682.000000	675.000000	-7045.000000	-4138.000000	46.000000	10.000000	34.000000	-33.000000	-337.000000	-54.000000	0.136719	0.224609	0.273437	0.039062	0.000000	0.000000	0.000000	0.000000
8/25/2022	3:56:57 PM	103760.000000	174728.000000	34836.000000	54420.000000	29649.000000	64458.000000	47837.000000	86078.000000	709.000000	-7026.000000	-4084.000000	55.000000	10.000000	10.000000	-30.000000	-330.000000	-57.000000	0.126953	0.239258	0.288086	0.034180	0.000000	0.000000	0.000000	0.000000
8/25/2022	3:56:57 PM	103954.000000	174454.000000	35044.000000	54420.000000	29610.000000	63756.000000	47612.000000	86413.000000	747.000000	-7040.000000	-4091.000000	38.000000	31.000000	-11.000000	-26.000000	-327.000000	-60.000000	0.126953	0.249023	0.288086	0.039062	0.000000	0.000000	0.000000	0.000000
8/25/2022	3:56:57 PM	104149.000000	173908.000000	35022.000000	54340.000000	29697.000000	63610.000000	47490.000000	86615.000000	810.000000	-7044.000000	-4065.000000	65.000000	-37.000000	-20.000000	-28.000000	-336.000000	-63.000000	0.131836	0.258789	0.297852	0.034180	0.000000	0.000000	0.000000	0.000000
8/25/2022	3:56:57 PM	104246.000000	173908.000000	35044.000000	54850.000000	29729.000000	64050.000000	47817.000000	87022.000000	879.000000	-7020.000000	-4061.000000	28.000000	8.000000	10.000000	-37.000000	-337.000000	-64.000000	0.136719	0.263672	0.288086	0.034180	0.000000	0.000000	0.000000	0.000000
8/25/2022	3:56:57 PM	104639.000000	173908.000000	35022.000000	54931.000000	29618.000000	63501.000000	48044.000000	87158.000000	729.000000	-7038.000000	-4147.000000	25.000000	55.000000	23.000000	-40.000000	-335.000000	-59.000000	0.126953	0.263672	0.273437	0.029297	0.000000	0.000000	0.000000	0.000000
8/25/2022	3:56:57 PM	104541.000000	172557.000000	34989.000000	54554.000000	29888.000000	64646.000000	47899.000000	86818.000000	766.000000	-7021.000000	-4131.000000	64.000000	9.000000	27.000000	-42.000000	-335.000000	-59.000000	0.151367	0.283203	0.268555	0.034180	0.000000	0.000000	0.000000	0.000000
8/25/2022	3:56:58 PM	104246.000000	174454.000000	35022.000000	54474.000000	29776.000000	63537.000000	47368.000000	86413.000000	705.000000	-7034.000000	-4063.000000	43.000000	64.000000	9.000000	-41.000000	-332.000000	-62.000000	0.131836	0.283203	0.273437	0.029297	0.000000	0.000000	0.000000	0.000000
8/25/2022	3:56:58 PM	104442.000000	174180.000000	35189.000000	54661.000000	29681.000000	62712.000000	47107.000000	86954.000000	737.000000	-7059.000000	-4060.000000	28.000000	25.000000	-6.000000	-36.000000	-330.000000	-55.000000	0.136719	0.292969	0.283203	0.034180	0.000000	0.000000	0.000000	0.000000
8/25/2022	3:56:58 PM	105035.000000	174180.000000	35334.000000	54877.000000	29586.000000	62925.000000	47308.000000	86954.000000	743.000000	-7012.000000	-4049.000000	30.000000	-1.000000	-11.000000	-38.000000	-330.000000	-53.000000	0.146484	0.278320	0.268555	0.034180	0.000000	0.000000	0.000000	0.000000
8/25/2022	3:56:58 PM	104738.000000	174728.000000	35133.000000	54931.000000	29689.000000	62854.000000	47389.000000	87090.000000	759.000000	-7043.000000	-4088.000000	-1.000000	52.000000	-19.000000	-42.000000	-341.000000	-56.000000	0.131836	0.278320	0.273437	0.029297	0.000000	0.000000	0.000000	0.000000
8/25/2022	3:56:58 PM	104541.000000	173636.000000	35122.000000	53866.000000	29705.000000	63248.000000	47530.000000	88196.000000	849.000000	-7020.000000	-4111.000000	54.000000	6.000000	1.000000	-41.000000	-348.000000	-55.000000	0.131836	0.273437	0.268555	0.029297	0.000000	0.000000	0.000000	0.000000
8/25/2022	3:56:58 PM	104639.000000	174728.000000	35155.000000	54102.000000	29555.000000	64272.000000	47227.000000	87090.000000	789.000000	-7037.000000	-4125.000000	31.000000	58.000000	-4.000000	-46.000000	-340.000000	-62.000000	0.161133	0.258789	0.268555	0.034180	0.000000	0.000000	0.000000	0.000000
8/25/2022	3:56:58 PM	104541.000000	175279.000000	35100.000000	54500.000000	29713.000000	63646.000000	47087.000000	88266.000000	800.000000	-7047.000000	-4123.000000	42.000000	28.000000	1.000000	-49.000000	-332.000000	-60.000000	0.141602	0.244141	0.283203	0.034180	0.000000	0.000000	0.000000	0.000000
8/25/2022	3:56:58 PM	104344.000000	174180.000000	35066.000000	54661.000000	29792.000000	64496.000000	46731.000000	87986.000000	753.000000	-7010.000000	-4052.000000	68.000000	4.000000	3.000000	-41.000000	-330.000000	-53.000000	0.161133	0.258789	0.273437	0.034180	0.000000	0.000000	0.000000	0.000000
8/25/2022	3:56:58 PM	104837.000000	174728.000000	34978.000000	53658.000000	29808.000000	64309.000000	47047.000000	88266.000000	708.000000	-7065.000000	-4046.000000	26.000000	67.000000	-13.000000	-36.000000	-335.000000	-54.000000	0.151367	0.249023	0.273437	0.034180	0.000000	0.000000	0.000000	0.000000
8/25/2022	3:56:58 PM	104738.000000	174180.000000	34890.000000	53762.000000	29824.000000	63976.000000	47028.000000	88056.000000	725.000000	-7035.000000	-4038.000000	36.000000	-4.000000	-3.000000	-34.000000	-336.000000	-57.000000	0.151367	0.263672	0.268555	0.029297	0.000000	0.000000	0.000000	0.000000
8/25/2022	3:56:58 PM	105634.000000	174180.000000	34857.000000	53997.000000	29641.000000	64384.000000	47328.000000	87708.000000	813.000000	-7037.000000	-4102.000000	0.000000	59.000000	-19.000000	-37.000000	-333.000000	-54.000000	0.141602	0.258789	0.273437	0.029297	0.000000	0.000000	0.000000	0.000000
8/25/2022	3:56:58 PM	104541.000000	175003.000000	34836.000000	53866.000000	29562.000000	65872.000000	47187.000000	86954.000000	807.000000	-7023.000000	-4105.000000	41.000000	30.000000	-17.000000	-43.000000	-336.000000	-53.000000	0.161133	0.253906	0.273437	0.029297	0.000000	0.000000	0.000000	0.000000
8/25/2022	3:56:58 PM	104442.000000	174728.000000	34857.000000	54155.000000	29721.000000	65292.000000	47288.000000	87847.000000	799.000000	-7026.000000	-4088.000000	30.000000	25.000000	-18.000000	-37.000000	-335.000000	-54.000000	0.161133	0.239258	0.278320	0.034180	0.000000	0.000000	0.000000	0.000000
8/25/2022	3:56:58 PM	104149.000000	175556.000000	34956.000000	53945.000000	29744.000000	65215.000000	47510.000000	87708.000000	766.000000	-7044.000000	-4111.000000	22.000000	41.000000	-2.000000	-33.000000	-330.000000	-57.000000	0.166016	0.224609	0.273437	0.034180	0.000000	0.000000	0.000000	0.000000
8/25/2022	3:56:58 PM	104738.000000	174728.000000	35078.000000	54500.000000	29872.000000	65177.000000	47653.000000	87432.000000	819.000000	-7024.000000	-4099.000000	37.000000	0.000000	-4.000000	-33.000000	-339.000000	-60.000000	0.175781	0.224609	0.278320	0.039062	0.000000	0.000000	0.000000	0.000000
8/25/2022	3:56:58 PM	104936.000000	174180.000000	35100.000000	53892.000000	29673.000000	65369.000000	47899.000000	86682.000000	792.000000	-7031.000000	-4112.000000	33.000000	36.000000	-11.000000	-36.000000	-335.000000	-62.000000	0.185547	0.219727	0.273437	0.043945	0.000000	0.000000	0.000000	0.000000
8/25/2022	3:56:58 PM	105333.000000	174728.000000	35200.000000	53892.000000	29641.000000	65639.000000	47087.000000	86547.000000	776.000000	-7056.000000	-4092.000000	28.000000	42.000000	1.000000	-37.000000	-329.000000	-65.000000	0.161133	0.205078	0.283203	0.039062	0.000000	0.000000	0.000000	0.000000
8/25/2022	3:56:58 PM	105035.000000	174180.000000	34989.000000	54076.000000	29752.000000	65330.000000	47207.000000	86278.000000	755.000000	-7032.000000	-4138.000000	25.000000	61.000000	-10.000000	-35.000000	-333.000000	-62.000000	0.141602	0.205078	0.288086	0.039062	0.000000	0.000000	0.000000	0.000000
8/25/2022	3:56:58 PM	103857.000000	173636.000000	34978.000000	54287.000000	29673.000000	65407.000000	47207.000000	87158.000000	781.000000	-7040.000000	-4136.000000	71.000000	10.000000	4.000000	-40.000000	-338.000000	-66.000000	0.161133	0.205078	0.273437	0.039062	0.000000	0.000000	0.000000	0.000000
8/25/2022	3:56:58 PM	103760.000000	173636.000000	34923.000000	53919.000000	29689.000000	65639.000000	47308.000000	87090.000000	708.000000	-7034.000000	-4347.000000	98.000000	59.000000	-28.000000	-31.000000	-332.000000	-71.000000	0.141602	0.205078	0.278320	0.039062	0.000000	0.000000	0.000000	0.000000
8/25/2022	3:56:59 PM	104149.000000	173365.000000	34967.000000	53945.000000	29602.000000	65024.000000	47653.000000	87158.000000	837.000000	-7019.000000	-4379.000000	264.000000	-4.000000	-25.000000	-21.000000	-331.000000	-69.000000	0.136719	0.205078	0.273437	0.039062	0.000000	0.000000	0.000000	0.000000
8/25/2022	3:56:59 PM	104541.000000	172557.000000	34989.000000	54287.000000	29816.000000	65253.000000	47591.000000	87917.000000	791.000000	-7064.000000	-4251.000000	288.000000	116.000000	-18.000000	-30.000000	-337.000000	-60.000000	0.131836	0.195312	0.297852	0.043945	0.000000	0.000000	0.000000	0.000000
8/25/2022	3:56:59 PM	104442.000000	174454.000000	34803.000000	54261.000000	29816.000000	66029.000000	47510.000000	87708.000000	863.000000	-7134.000000	-4123.000000	434.000000	-20.000000	-15.000000	-34.000000	-338.000000	-68.000000	0.126953	0.205078	0.283203	0.048828	0.000000	0.000000	0.000000	0.000000
8/25/2022	3:56:59 PM	103182.000000	173636.000000	34847.000000	54261.000000	29808.000000	66107.000000	47409.000000	86818.000000	566.000000	-7145.000000	-3932.000000	401.000000	231.000000	37.000000	-35.000000	-335.000000	-73.000000	0.141602	0.224609	0.288086	0.043945	0.000000	0.000000	0.000000	0.000000
8/25/2022	3:56:59 PM	104639.000000	172826.000000	35155.000000	54554.000000	29768.000000	65062.000000	47551.000000	86212.000000	992.000000	-7213.000000	-3953.000000	479.000000	75.000000	-7.000000	-34.000000	-330.000000	-68.000000	0.126953	0.224609	0.278320	0.048828	0.000000	0.000000	0.000000	0.000000
8/25/2022	3:56:59 PM	104149.000000	173908.000000	35111.000000	54367.000000	30437.000000	68597.000000	49411.000000	86212.000000	726.000000	-7309.000000	-3671.000000	574.000000	80.000000	50.000000	-33.000000	-328.000000	-66.000000	0.146484	0.229492	0.283203	0.043945	0.000000	0.000000	0.000000	0.000000
8/25/2022	3:56:59 PM	104051.000000	173636.000000	35368.000000	54554.000000	30487.000000	68681.000000	49699.000000	86278.000000	850.000000	-7312.000000	-3284.000000	511.000000	139.000000	-11.000000	-34.000000	-322.000000	-66.000000	0.146484	0.244141	0.288086	0.043945	0.000000	0.000000	0.000000	0.000000
8/25/2022	3:56:59 PM	103954.000000	173365.000000	35189.000000	54527.000000	30487.000000	69541.000000	50420.000000	87227.000000	753.000000	-7422.000000	-3113.000000	444.000000	47.000000	14.000000	-38.000000	-316.000000	-70.000000	0.131836	0.258789	0.278320	0.039062	0.000000	0.000000	0.000000	0.000000
8/25/2022	3:56:59 PM	103954.000000	173636.000000	35357.000000	54474.000000	30563.000000	69847.000000	50420.000000	85878.000000	842.000000	-7425.000000	-2930.000000	344.000000	-9.000000	-8.000000	-46.000000	-319.000000	-75.000000	0.126953	0.288086	0.278320	0.034180	0.000000	0.000000	0.000000	0.000000
8/25/2022	3:56:59 PM	103857.000000	175003.000000	35334.000000	54340.000000	30554.000000	68937.000000	50581.000000	85220.000000	763.000000	-7478.000000	-2946.000000	209.000000	53.000000	-29.000000	-41.000000	-321.000000	-73.000000	0.126953	0.297852	0.273437	0.034180	0.000000	0.000000	0.000000	0.000000
8/25/2022	3:56:59 PM	101951.000000	174454.000000	35402.000000	53997.000000	30588.000000	69847.000000	50420.000000	84379.000000	865.000000	-7524.000000	-3004.000000	165.000000	-36.000000	-19.000000	-40.000000	-320.000000	-73.000000	0.131836	0.317383	0.273437	0.039062	0.000000	0.000000	0.000000	0.000000
8/25/2022	3:56:59 PM	103566.000000	173365.000000	35256.000000	54182.000000	30766.000000	69497.000000	50397.000000	84379.000000	946.000000	-7474.000000	-3118.000000	82.000000	55.000000	-23.000000	-37.000000	-327.000000	-76.000000	0.141602	0.332031	0.268555	0.039062	0.000000	0.000000	0.000000	0.000000
8/25/2022	3:56:59 PM	103278.000000	174180.000000	35244.000000	53840.000000	30963.000000	68428.000000	50535.000000	84123.000000	826.000000	-7480.000000	-2984.000000	81.000000	36.000000	-26.000000	-33.000000	-330.000000	-72.000000	0.117187	0.351562	0.268555	0.039062	0.000000	0.000000	0.000000	0.000000
8/25/2022	3:56:59 PM	103566.000000	173908.000000	35177.000000	54208.000000	30842.000000	69585.000000	49989.000000	85416.000000	860.000000	-7521.000000	-3302.000000	-2.000000	-5.000000	-19.000000	-33.000000	-326.000000	-74.000000	0.156250	0.375977	0.268555	0.034180	0.000000	0.000000	0.000000	0.000000
8/25/2022	3:56:59 PM	103954.000000	174180.000000	35222.000000	54102.000000	30740.000000	69109.000000	49389.000000	85351.000000	870.000000	-7472.000000	-3167.000000	94.000000	11.000000	-21.000000	-44.000000	-329.000000	-71.000000	0.131836	0.371094	0.273437	0.029297	0.000000	0.000000	0.000000	0.000000
8/25/2022	3:56:59 PM	104246.000000	175003.000000	35111.000000	54023.000000	30903.000000	69585.000000	49588.000000	85945.000000	865.000000	-7533.000000	-2952.000000	-33.000000	27.000000	-8.000000	-45.000000	-329.000000	-68.000000	0.117187	0.351562	0.278320	0.034180	0.000000	0.000000	0.000000	0.000000
8/25/2022	3:56:59 PM	103470.000000	174454.000000	34989.000000	53997.000000	31084.000000	69715.000000	49788.000000	85614.000000	904.000000	-7502.000000	-2679.000000	-113.000000	-26.000000	20.000000	-35.000000	-323.000000	-69.000000	0.112305	0.351562	0.288086	0.034180	0.000000	0.000000	0.000000	0.000000
8/25/2022	3:56:59 PM	104246.000000	174454.000000	35289.000000	54023.000000	31312.000000	69497.000000	49855.000000	83869.000000	918.000000	-7436.000000	-2706.000000	-366.000000	51.000000	17.000000	-36.000000	-322.000000	-69.000000	0.112305	0.322266	0.278320	0.034180	0.000000	0.000000	0.000000	0.000000
8/25/2022	3:56:59 PM	104442.000000	175003.000000	35458.000000	53997.000000	31400.000000	68218.000000	49610.000000	85945.000000	782.000000	-7408.000000	-2841.000000	-506.000000	55.000000	33.000000	-33.000000	-319.000000	-70.000000	0.117187	0.317383	0.273437	0.029297	0.000000	0.000000	0.000000	0.000000
8/25/2022	3:56:59 PM	104541.000000	174728.000000	35078.000000	54050.000000	30774.000000	68428.000000	49280.000000	84894.000000	702.000000	-7327.000000	-3313.000000	-690.000000	29.000000	-16.000000	-33.000000	-317.000000	-63.000000	0.131836	0.288086	0.273437	0.034180	0.000000	0.000000	0.000000	0.000000
8/25/2022	3:57:00 PM	103566.000000	175556.000000	35055.000000	54367.000000	30529.000000	67554.000000	48337.000000	84959.000000	865.000000	-7226.000000	-3630.000000	-634.000000	-127.000000	-22.000000	-33.000000	-326.000000	-61.000000	0.117187	0.268555	0.273437	0.029297	0.000000	0.000000	0.000000	0.000000
8/25/2022	3:57:00 PM	103857.000000	174180.000000	35256.000000	54129.000000	30732.000000	64759.000000	47982.000000	86078.000000	797.000000	-7007.000000	-3877.000000	-676.000000	-61.000000	11.000000	-31.000000	-335.000000	-66.000000	0.122070	0.249023	0.288086	0.029297	0.000000	0.000000	0.000000	0.000000
8/25/2022	3:57:00 PM	103374.000000	174454.000000	35155.000000	53710.000000	29993.000000	65100.000000	47328.000000	86345.000000	863.000000	-7065.000000	-4409.000000	-654.000000	-55.000000	-28.000000	-36.000000	-330.000000	-69.000000	0.126953	0.229492	0.268555	0.034180	0.000000	0.000000	0.000000	0.000000
8/25/2022	3:57:00 PM	104149.000000	175003.000000	34781.000000	53349.000000	29977.000000	64384.000000	48379.000000	86615.000000	678.000000	-6897.000000	-4383.000000	-450.000000	-103.000000	31.000000	-41.000000	-332.000000	-70.000000	0.117187	0.224609	0.273437	0.039062	0.000000	0.000000	0.000000	0.000000
8/25/2022	3:57:00 PM	103470.000000	173636.000000	34978.000000	53221.000000	29792.000000	66147.000000	47817.000000	86547.000000	952.000000	-6897.000000	-4678.000000	-461.000000	2.000000	5.000000	-37.000000	-333.000000	-64.000000	0.112305	0.219727	0.283203	0.034180	0.000000	0.000000	0.000000	0.000000
8/25/2022	3:57:00 PM	104837.000000	175556.000000	34934.000000	54155.000000	29562.000000	67801.000000	48044.000000	85155.000000	667.000000	-6817.000000	-4631.000000	-299.000000	41.000000	-7.000000	-32.000000	-330.000000	-63.000000	0.112305	0.244141	0.273437	0.034180	0.000000	0.000000	0.000000	0.000000
8/25/2022	3:57:00 PM	104837.000000	174728.000000	34901.000000	54050.000000	29618.000000	66463.000000	47612.000000	87708.000000	852.000000	-6856.000000	-4775.000000	-172.000000	-40.000000	-25.000000	-31.000000	-333.000000	-63.000000	0.107422	0.249023	0.273437	0.029297	0.000000	0.000000	0.000000	0.000000
8/25/2022	3:57:00 PM	104246.000000	174728.000000	35044.000000	54608.000000	29531.000000	67105.000000	47858.000000	87570.000000	751.000000	-6785.000000	-4738.000000	-102.000000	51.000000	-9.000000	-32.000000	-337.000000	-65.000000	0.117187	0.258789	0.273437	0.039062	0.000000	0.000000	0.000000	0.000000
8/25/2022	3:57:00 PM	104639.000000	173908.000000	35089.000000	54474.000000	29665.000000	67349.000000	47817.000000	86011.000000	737.000000	-6822.000000	-4586.000000	27.000000	30.000000	-42.000000	-35.000000	-343.000000	-63.000000	0.122070	0.258789	0.278320	0.029297	0.000000	0.000000	0.000000	0.000000
8/25/2022	3:57:00 PM	104541.000000	173908.000000	34967.000000	54715.000000	29649.000000	64087.000000	47879.000000	85351.000000	969.000000	-6776.000000	-4566.000000	45.000000	-17.000000	-20.000000	-40.000000	-340.000000	-64.000000	0.112305	0.278320	0.283203	0.029297	0.000000	0.000000	0.000000	0.000000
8/25/2022	3:57:00 PM	104344.000000	174728.000000	34934.000000	54742.000000	29824.000000	64198.000000	47612.000000	84830.000000	776.000000	-6804.000000	-4474.000000	78.000000	54.000000	-22.000000	-34.000000	-338.000000	-66.000000	0.107422	0.283203	0.288086	0.029297	0.000000	0.000000	0.000000	0.000000
8/25/2022	3:57:00 PM	105333.000000	173636.000000	34825.000000	55040.000000	29633.000000	64571.000000	47714.000000	86145.000000	920.000000	-6830.000000	-4470.000000	108.000000	9.000000	-20.000000	-30.000000	-342.000000	-64.000000	0.102539	0.278320	0.273437	0.034180	0.000000	0.000000	0.000000	0.000000
8/25/2022	3:57:00 PM	105134.000000	173908.000000	34770.000000	54581.000000	29445.000000	65716.000000	47714.000000	86212.000000	838.000000	-6835.000000	-4388.000000	98.000000	25.000000	6.000000	-35.000000	-339.000000	-64.000000	0.092773	0.278320	0.268555	0.029297	0.000000	0.000000	0.000000	0.000000
8/25/2022	3:57:00 PM	105035.000000	172826.000000	34868.000000	54287.000000	29547.000000	64797.000000	47694.000000	85548.000000	807.000000	-6863.000000	-4359.000000	114.000000	16.000000	-3.000000	-36.000000	-339.000000	-61.000000	0.107422	0.268555	0.278320	0.034180	0.000000	0.000000	0.000000	0.000000
8/25/2022	3:57:00 PM	103760.000000	174180.000000	35033.000000	54581.000000	29437.000000	64684.000000	47389.000000	86413.000000	834.000000	-6869.000000	-4384.000000	92.000000	5.000000	8.000000	-35.000000	-343.000000	-59.000000	0.097656	0.263672	0.268555	0.029297	0.000000	0.000000	0.000000	0.000000
8/25/2022	3:57:00 PM	104738.000000	172290.000000	34890.000000	54447.000000	29547.000000	64721.000000	47796.000000	86615.000000	824.000000	-6865.000000	-4375.000000	94.000000	54.000000	19.000000	-34.000000	-339.000000	-54.000000	0.092773	0.278320	0.273437	0.034180	0.000000	0.000000	0.000000	0.000000
8/25/2022	3:57:00 PM	103857.000000	173908.000000	34857.000000	54608.000000	29523.000000	65100.000000	47530.000000	85089.000000	787.000000	-6851.000000	-4327.000000	90.000000	109.000000	5.000000	-33.000000	-333.000000	-56.000000	0.097656	0.283203	0.273437	0.029297	0.000000	0.000000	0.000000	0.000000
8/25/2022	3:57:00 PM	104246.000000	173095.000000	34956.000000	54769.000000	29570.000000	64948.000000	47591.000000	85878.000000	796.000000	-6905.000000	-4332.000000	71.000000	81.000000	9.000000	-37.000000	-331.000000	-61.000000	0.102539	0.288086	0.278320	0.034180	0.000000	0.000000	0.000000	0.000000
8/25/2022	3:57:00 PM	105134.000000	173095.000000	34989.000000	54742.000000	29760.000000	65407.000000	47449.000000	87570.000000	869.000000	-6891.000000	-4290.000000	119.000000	12.000000	4.000000	-32.000000	-327.000000	-70.000000	0.107422	0.268555	0.268555	0.034180	0.000000	0.000000	0.000000	0.000000
8/25/2022	3:57:00 PM	103857.000000	173095.000000	34956.000000	54715.000000	29610.000000	64759.000000	47591.000000	86954.000000	750.000000	-6922.000000	-4304.000000	44.000000	64.000000	-1.000000	-28.000000	-325.000000	-65.000000	0.131836	0.283203	0.288086	0.034180	0.000000	0.000000	0.000000	0.000000
8/25/2022	3:57:01 PM	104639.000000	173095.000000	34978.000000	55068.000000	29649.000000	64496.000000	47551.000000	87847.000000	841.000000	-6916.000000	-4264.000000	128.000000	-59.000000	-12.000000	-31.000000	-332.000000	-49.000000	0.107422	0.253906	0.273437	0.029297	0.000000	0.000000	0.000000	0.000000
8/25/2022	3:57:01 PM	105634.000000	173095.000000	34629.000000	54715.000000	29673.000000	64608.000000	47348.000000	87295.000000	928.000000	-6890.000000	-4211.000000	55.000000	-1.000000	2.000000	-35.000000	-336.000000	-56.000000	0.107422	0.273437	0.268555	0.034180	0.000000	0.000000	0.000000	0.000000
8/25/2022	3:57:01 PM	106240.000000	172826.000000	34978.000000	54715.000000	29492.000000	64272.000000	47167.000000	87708.000000	742.000000	-6907.000000	-4271.000000	52.000000	26.000000	14.000000	-35.000000	-336.000000	-63.000000	0.107422	0.268555	0.273437	0.034180	0.000000	0.000000	0.000000	0.000000
8/25/2022	3:57:01 PM	106956.000000	173365.000000	35033.000000	54769.000000	29649.000000	64309.000000	47551.000000	86480.000000	738.000000	-6952.000000	-4309.000000	45.000000	6.000000	8.000000	-34.000000	-339.000000	-56.000000	0.102539	0.288086	0.278320	0.034180	0.000000	0.000000	0.000000	0.000000
8/25/2022	3:57:01 PM	106750.000000	173095.000000	35011.000000	55013.000000	29744.000000	64421.000000	47187.000000	86212.000000	772.000000	-6922.000000	-4280.000000	64.000000	22.000000	21.000000	-35.000000	-338.000000	-62.000000	0.117187	0.292969	0.278320	0.034180	0.000000	0.000000	0.000000	0.000000
8/25/2022	3:57:01 PM	105134.000000	174180.000000	35044.000000	54823.000000	29816.000000	64721.000000	47147.000000	85812.000000	881.000000	-6897.000000	-4222.000000	63.000000	10.000000	-8.000000	-31.000000	-335.000000	-61.000000	0.126953	0.302734	0.288086	0.034180	0.000000	0.000000	0.000000	0.000000
8/25/2022	3:57:01 PM	106037.000000	173095.000000	35000.000000	54904.000000	29602.000000	64496.000000	47147.000000	85746.000000	742.000000	-6924.000000	-4251.000000	29.000000	-5.000000	18.000000	-35.000000	-337.000000	-63.000000	0.126953	0.307617	0.288086	0.034180	0.000000	0.000000	0.000000	0.000000
8/25/2022	3:57:01 PM	105835.000000	172290.000000	35011.000000	54634.000000	29776.000000	63610.000000	47288.000000	86818.000000	873.000000	-6886.000000	-4305.000000	28.000000	18.000000	-12.000000	-32.000000	-336.000000	-69.000000	0.126953	0.327148	0.288086	0.034180	0.000000	0.000000	0.000000	0.000000
8/25/2022	3:57:01 PM	106853.000000	172826.000000	34945.000000	54796.000000	29555.000000	64421.000000	47429.000000	85089.000000	879.000000	-6894.000000	-4280.000000	66.000000	21.000000	2.000000	-32.000000	-335.000000	-70.000000	0.102539	0.332031	0.288086	0.034180	0.000000	0.000000	0.000000	0.000000
8/25/2022	3:57:01 PM	106037.000000	172290.000000	34847.000000	54931.000000	29657.000000	64948.000000	47308.000000	85680.000000	774.000000	-6944.000000	-4246.000000	13.000000	48.000000	11.000000	-36.000000	-341.000000	-65.000000	0.117187	0.341797	0.292969	0.048828	0.000000	0.000000	0.000000	0.000000
8/25/2022	3:57:01 PM	106341.000000	172557.000000	34847.000000	54931.000000	29476.000000	65292.000000	47571.000000	85548.000000	802.000000	-6919.000000	-4269.000000	45.000000	29.000000	26.000000	-34.000000	-339.000000	-64.000000	0.117187	0.317383	0.273437	0.039062	0.000000	0.000000	0.000000	0.000000
8/25/2022	3:57:01 PM	106545.000000	173095.000000	34901.000000	54959.000000	29570.000000	64872.000000	46751.000000	86145.000000	817.000000	-6920.000000	-4264.000000	41.000000	3.000000	16.000000	-35.000000	-331.000000	-65.000000	0.117187	0.327148	0.288086	0.043945	0.000000	0.000000	0.000000	0.000000
8/25/2022	3:57:01 PM	107162.000000	172826.000000	34803.000000	54742.000000	29555.000000	64684.000000	47147.000000	86413.000000	759.000000	-6921.000000	-4297.000000	30.000000	40.000000	14.000000	-34.000000	-329.000000	-64.000000	0.102539	0.312500	0.278320	0.034180	0.000000	0.000000	0.000000	0.000000
8/25/2022	3:57:01 PM	106545.000000	173908.000000	34901.000000	54742.000000	29729.000000	64496.000000	47028.000000	86615.000000	738.000000	-6918.000000	-4301.000000	43.000000	5.000000	9.000000	-33.000000	-337.000000	-64.000000	0.102539	0.307617	0.288086	0.039062	0.000000	0.000000	0.000000	0.000000
8/25/2022	3:57:01 PM	107369.000000	174180.000000	34879.000000	54527.000000	29594.000000	65177.000000	47207.000000	86886.000000	803.000000	-6914.000000	-4244.000000	44.000000	10.000000	12.000000	-33.000000	-342.000000	-60.000000	0.097656	0.278320	0.288086	0.034180	0.000000	0.000000	0.000000	0.000000
8/25/2022	3:57:01 PM	106956.000000	173095.000000	34662.000000	54527.000000	29713.000000	64759.000000	47348.000000	87022.000000	829.000000	-6941.000000	-4240.000000	35.000000	-12.000000	11.000000	-32.000000	-345.000000	-62.000000	0.102539	0.278320	0.288086	0.039062	0.000000	0.000000	0.000000	0.000000
8/25/2022	3:57:01 PM	106853.000000	174728.000000	34868.000000	54554.000000	29531.000000	65561.000000	47673.000000	85945.000000	773.000000	-6989.000000	-4263.000000	26.000000	8.000000	33.000000	-34.000000	-345.000000	-63.000000	0.102539	0.268555	0.283203	0.034180	0.000000	0.000000	0.000000	0.000000
8/25/2022	3:57:01 PM	105734.000000	173908.000000	34770.000000	54661.000000	29840.000000	64161.000000	47530.000000	87295.000000	713.000000	-6949.000000	-4270.000000	68.000000	29.000000	24.000000	-37.000000	-339.000000	-59.000000	0.117187	0.268555	0.288086	0.043945	0.000000	0.000000	0.000000	0.000000
8/25/2022	3:57:01 PM	106545.000000	174180.000000	34912.000000	54554.000000	29610.000000	65523.000000	47227.000000	87570.000000	638.000000	-6930.000000	-4257.000000	96.000000	29.000000	2.000000	-35.000000	-336.000000	-63.000000	0.122070	0.258789	0.273437	0.039062	0.000000	0.000000	0.000000	0.000000
8/25/2022	3:57:01 PM	106853.000000	174180.000000	34803.000000	54287.000000	29752.000000	65794.000000	47530.000000	86954.000000	713.000000	-6956.000000	-4288.000000	54.000000	-7.000000	-23.000000	-34.000000	-335.000000	-66.000000	0.112305	0.258789	0.273437	0.039062	0.000000	0.000000	0.000000	0.000000
8/25/2022	3:57:02 PM	107785.000000	174180.000000	34597.000000	54287.000000	29945.000000	65369.000000	47632.000000	87295.000000	722.000000	-6934.000000	-4272.000000	102.000000	22.000000	-49.000000	-35.000000	-336.000000	-64.000000	0.117187	0.263672	0.288086	0.039062	0.000000	0.000000	0.000000	0.000000
8/25/2022	3:57:02 PM	106545.000000	174728.000000	34748.000000	54367.000000	30001.000000	65678.000000	47028.000000	86413.000000	883.000000	-6943.000000	-4231.000000	86.000000	-80.000000	-40.000000	-34.000000	-331.000000	-64.000000	0.117187	0.283203	0.283203	0.043945	0.000000	0.000000	0.000000	0.000000
8/25/2022	3:57:02 PM	107059.000000	176112.000000	34651.000000	54023.000000	29776.000000	64910.000000	47612.000000	86615.000000	797.000000	-6969.000000	-4181.000000	45.000000	74.000000	7.000000	-31.000000	-329.000000	-60.000000	0.112305	0.268555	0.273437	0.039062	0.000000	0.000000	0.000000	0.000000
8/25/2022	3:57:02 PM	107890.000000	175279.000000	34857.000000	53814.000000	29578.000000	65561.000000	47348.000000	87090.000000	807.000000	-6949.000000	-4187.000000	75.000000	44.000000	38.000000	-26.000000	-333.000000	-63.000000	0.117187	0.283203	0.283203	0.043945	0.000000	0.000000	0.000000	0.000000
8/25/2022	3:57:02 PM	107265.000000	174728.000000	34803.000000	53971.000000	29776.000000	64013.000000	47858.000000	87158.000000	641.000000	-6960.000000	-4125.000000	59.000000	44.000000	26.000000	-27.000000	-336.000000	-63.000000	0.117187	0.273437	0.268555	0.043945	0.000000	0.000000	0.000000	0.000000
8/25/2022	3:57:02 PM	107577.000000	175279.000000	34651.000000	53945.000000	29832.000000	64421.000000	47449.000000	86547.000000	731.000000	-7039.000000	-4205.000000	31.000000	28.000000	3.000000	-27.000000	-339.000000	-60.000000	0.112305	0.273437	0.283203	0.034180	0.000000	0.000000	0.000000	0.000000
8/25/2022	3:57:02 PM	106648.000000	174180.000000	34836.000000	53658.000000	29768.000000	64759.000000	47490.000000	87570.000000	667.000000	-6973.000000	-4237.000000	41.000000	28.000000	18.000000	-28.000000	-332.000000	-68.000000	0.102539	0.263672	0.283203	0.034180	0.000000	0.000000	0.000000	0.000000
8/25/2022	3:57:02 PM	107162.000000	174180.000000	34770.000000	54050.000000	29657.000000	64124.000000	47551.000000	88547.000000	667.000000	-6976.000000	-4201.000000	57.000000	-3.000000	-32.000000	-32.000000	-323.000000	-72.000000	0.102539	0.253906	0.292969	0.029297	0.000000	0.000000	0.000000	0.000000
8/25/2022	3:57:02 PM	106648.000000	174454.000000	34857.000000	53971.000000	29760.000000	64013.000000	46948.000000	87917.000000	837.000000	-6952.000000	-4194.000000	71.000000	-14.000000	-27.000000	-34.000000	-333.000000	-69.000000	0.107422	0.239258	0.283203	0.034180	0.000000	0.000000	0.000000	0.000000
8/25/2022	3:57:02 PM	106545.000000	175003.000000	34694.000000	54050.000000	29602.000000	64347.000000	47008.000000	88830.000000	793.000000	-7039.000000	-4170.000000	12.000000	50.000000	-32.000000	-38.000000	-342.000000	-64.000000	0.102539	0.249023	0.283203	0.034180	0.000000	0.000000	0.000000	0.000000
8/25/2022	3:57:02 PM	106443.000000	174728.000000	34792.000000	54076.000000	29602.000000	63683.000000	47591.000000	87917.000000	818.000000	-7009.000000	-4220.000000	50.000000	11.000000	-16.000000	-40.000000	-341.000000	-69.000000	0.107422	0.253906	0.278320	0.034180	0.000000	0.000000	0.000000	0.000000
8/25/2022	3:57:02 PM	105936.000000	174180.000000	34716.000000	54234.000000	29705.000000	63320.000000	47248.000000	88336.000000	825.000000	-6981.000000	-4135.000000	108.000000	9.000000	-9.000000	-38.000000	-340.000000	-71.000000	0.112305	0.263672	0.288086	0.029297	0.000000	0.000000	0.000000	0.000000
8/25/2022	3:57:02 PM	106240.000000	174454.000000	34792.000000	54447.000000	29555.000000	64759.000000	47714.000000	88056.000000	758.000000	-6947.000000	-4141.000000	61.000000	35.000000	3.000000	-43.000000	-338.000000	-69.000000	0.102539	0.249023	0.288086	0.029297	0.000000	0.000000	0.000000	0.000000
8/25/2022	3:57:02 PM	105734.000000	174180.000000	34727.000000	54314.000000	29500.000000	63902.000000	47047.000000	88759.000000	717.000000	-6982.000000	-4162.000000	39.000000	-1.000000	-69.000000	-46.000000	-333.000000	-68.000000	0.102539	0.239258	0.288086	0.034180	0.000000	0.000000	0.000000	0.000000
8/25/2022	3:57:02 PM	105333.000000	174180.000000	34759.000000	54715.000000	29523.000000	63792.000000	47028.000000	90274.000000	888.000000	-6949.000000	-4172.000000	36.000000	-19.000000	-21.000000	-40.000000	-328.000000	-69.000000	0.107422	0.268555	0.292969	0.029297	0.000000	0.000000	0.000000	0.000000
8/25/2022	3:57:02 PM	106341.000000	174180.000000	34608.000000	54850.000000	29539.000000	64272.000000	46711.000000	88618.000000	872.000000	-7043.000000	-4096.000000	41.000000	23.000000	-16.000000	-32.000000	-338.000000	-65.000000	0.112305	0.278320	0.292969	0.029297	0.000000	0.000000	0.000000	0.000000
8/25/2022	3:57:02 PM	104936.000000	174454.000000	34608.000000	54554.000000	29816.000000	64235.000000	47008.000000	88406.000000	627.000000	-7074.000000	-4144.000000	11.000000	55.000000	30.000000	-33.000000	-343.000000	-65.000000	0.107422	0.268555	0.283203	0.029297	0.000000	0.000000	0.000000	0.000000
8/25/2022	3:57:02 PM	105134.000000	174728.000000	34619.000000	54527.000000	29562.000000	64608.000000	46731.000000	88056.000000	685.000000	-6939.000000	-4096.000000	47.000000	33.000000	-14.000000	-38.000000	-339.000000	-70.000000	0.107422	0.273437	0.283203	0.024414	0.000000	0.000000	0.000000	0.000000
8/25/2022	3:57:02 PM	106037.000000	174454.000000	34727.000000	55095.000000	29744.000000	65253.000000	46672.000000	88336.000000	687.000000	-7033.000000	-4148.000000	45.000000	110.000000	-75.000000	-32.000000	-336.000000	-65.000000	0.107422	0.253906	0.278320	0.029297	0.000000	0.000000	0.000000	0.000000
8/25/2022	3:57:02 PM	105734.000000	174454.000000	34934.000000	54877.000000	29792.000000	65139.000000	46928.000000	88830.000000	868.000000	-6973.000000	-4231.000000	15.000000	-10.000000	-69.000000	-32.000000	-338.000000	-62.000000	0.097656	0.244141	0.278320	0.029297	0.000000	0.000000	0.000000	0.000000
8/25/2022	3:57:03 PM	106443.000000	174454.000000	34847.000000	54850.000000	29633.000000	64872.000000	47694.000000	87639.000000	919.000000	-6909.000000	-4197.000000	70.000000	14.000000	-95.000000	-36.000000	-338.000000	-63.000000	0.087891	0.234375	0.283203	0.024414	0.000000	0.000000	0.000000	0.000000
8/25/2022	3:57:03 PM	106341.000000	175003.000000	34803.000000	54715.000000	29484.000000	64161.000000	48274.000000	88688.000000	981.000000	-6950.000000	-4258.000000	30.000000	4.000000	-43.000000	-32.000000	-331.000000	-71.000000	0.102539	0.253906	0.283203	0.034180	0.000000	0.000000	0.000000	0.000000
8/25/2022	3:57:03 PM	105734.000000	174180.000000	34781.000000	54715.000000	29705.000000	65062.000000	49062.000000	88477.000000	914.000000	-6995.000000	-4141.000000	40.000000	-22.000000	-5.000000	-36.000000	-336.000000	-71.000000	0.087891	0.253906	0.278320	0.029297	0.000000	0.000000	0.000000	0.000000
8/25/2022	3:57:03 PM	106443.000000	174454.000000	35011.000000	54742.000000	29737.000000	65950.000000	49346.000000	88056.000000	878.000000	-7007.000000	-4173.000000	39.000000	100.000000	31.000000	-43.000000	-336.000000	-63.000000	0.092773	0.258789	0.288086	0.029297	0.000000	0.000000	0.000000	0.000000
8/25/2022	3:57:03 PM	104541.000000	174180.000000	35144.000000	54474.000000	29752.000000	66265.000000	49041.000000	88406.000000	648.000000	-7024.000000	-4016.000000	105.000000	48.000000	32.000000	-37.000000	-327.000000	-63.000000	0.107422	0.258789	0.288086	0.029297	0.000000	0.000000	0.000000	0.000000
8/25/2022	3:57:03 PM	106853.000000	173636.000000	34923.000000	54420.000000	29602.000000	65600.000000	48506.000000	88126.000000	835.000000	-7004.000000	-4150.000000	1.000000	60.000000	-1.000000	-35.000000	-328.000000	-63.000000	0.122070	0.253906	0.278320	0.039062	0.000000	0.000000	0.000000	0.000000
8/25/2022	3:57:03 PM	105936.000000	173636.000000	34923.000000	54261.000000	29610.000000	64309.000000	47796.000000	87432.000000	833.000000	-7020.000000	-3981.000000	54.000000	84.000000	5.000000	-40.000000	-327.000000	-70.000000	0.117187	0.249023	0.278320	0.029297	0.000000	0.000000	0.000000	0.000000
8/25/2022	3:57:03 PM	104837.000000	173365.000000	34967.000000	54661.000000	29729.000000	64384.000000	47490.000000	87295.000000	691.000000	-6938.000000	-4051.000000	-75.000000	82.000000	-8.000000	-40.000000	-330.000000	-70.000000	0.112305	0.244141	0.283203	0.024414	0.000000	0.000000	0.000000	0.000000
8/25/2022	3:57:03 PM	104837.000000	174454.000000	34814.000000	54796.000000	29776.000000	65253.000000	48148.000000	88406.000000	828.000000	-7039.000000	-4222.000000	-43.000000	-29.000000	-67.000000	-37.000000	-337.000000	-61.000000	0.122070	0.249023	0.278320	0.029297	0.000000	0.000000	0.000000	0.000000
8/25/2022	3:57:03 PM	104837.000000	173636.000000	34879.000000	54500.000000	29626.000000	65755.000000	48023.000000	87090.000000	791.000000	-6947.000000	-4371.000000	32.000000	62.000000	-70.000000	-34.000000	-340.000000	-59.000000	0.112305	0.278320	0.273437	0.034180	0.000000	0.000000	0.000000	0.000000
8/25/2022	3:57:03 PM	105936.000000	173636.000000	34978.000000	54340.000000	29816.000000	65407.000000	48003.000000	87295.000000	824.000000	-7039.000000	-4279.000000	67.000000	78.000000	-115.000000	-35.000000	-337.000000	-65.000000	0.117187	0.292969	0.273437	0.034180	0.000000	0.000000	0.000000	0.000000
8/25/2022	3:57:03 PM	104639.000000	173908.000000	34923.000000	54608.000000	30010.000000	64759.000000	47899.000000	86682.000000	875.000000	-6920.000000	-4042.000000	113.000000	25.000000	-69.000000	-36.000000	-331.000000	-68.000000	0.102539	0.302734	0.278320	0.029297	0.000000	0.000000	0.000000	0.000000
8/25/2022	3:57:03 PM	105433.000000	174454.000000	34934.000000	54500.000000	29993.000000	64646.000000	47735.000000	86345.000000	1020.000000	-6976.000000	-4024.000000	-8.000000	27.000000	-110.000000	-35.000000	-335.000000	-61.000000	0.107422	0.317383	0.283203	0.034180	0.000000	0.000000	0.000000	0.000000
8/25/2022	3:57:03 PM	105234.000000	173908.000000	35022.000000	54234.000000	29800.000000	63719.000000	47941.000000	86011.000000	1006.000000	-6998.000000	-4085.000000	-3.000000	18.000000	-52.000000	-34.000000	-333.000000	-64.000000	0.126953	0.302734	0.288086	0.034180	0.000000	0.000000	0.000000	0.000000
8/25/2022	3:57:03 PM	105333.000000	173908.000000	34879.000000	54340.000000	29929.000000	64684.000000	48997.000000	86345.000000	1069.000000	-6999.000000	-4101.000000	13.000000	92.000000	-52.000000	-34.000000	-326.000000	-70.000000	0.122070	0.302734	0.278320	0.034180	0.000000	0.000000	0.000000	0.000000
8/25/2022	3:57:03 PM	105433.000000	173636.000000	34956.000000	54715.000000	29888.000000	65950.000000	48612.000000	84830.000000	1037.000000	-6944.000000	-4167.000000	13.000000	41.000000	-13.000000	-37.000000	-320.000000	-66.000000	0.126953	0.297852	0.273437	0.039062	0.000000	0.000000	0.000000	0.000000
8/25/2022	3:57:03 PM	105333.000000	173636.000000	34901.000000	54581.000000	29808.000000	66344.000000	49062.000000	86413.000000	1062.000000	-6930.000000	-4287.000000	-7.000000	70.000000	-19.000000	-43.000000	-326.000000	-63.000000	0.117187	0.297852	0.268555	0.034180	0.000000	0.000000	0.000000	0.000000
8/25/2022	3:57:03 PM	106341.000000	174180.000000	35089.000000	54287.000000	29808.000000	65755.000000	49019.000000	87364.000000	1095.000000	-6941.000000	-4295.000000	52.000000	34.000000	8.000000	-40.000000	-328.000000	-69.000000	0.117187	0.288086	0.278320	0.039062	0.000000	0.000000	0.000000	0.000000
8/25/2022	3:57:03 PM	105835.000000	173636.000000	34989.000000	54314.000000	29713.000000	66344.000000	49019.000000	87090.000000	977.000000	-6989.000000	-4119.000000	62.000000	10.000000	16.000000	-41.000000	-325.000000	-71.000000	0.117187	0.307617	0.268555	0.034180	0.000000	0.000000	0.000000	0.000000
8/25/2022	3:57:03 PM	105433.000000	174454.000000	35044.000000	53997.000000	29816.000000	64571.000000	48911.000000	86682.000000	906.000000	-6967.000000	-4107.000000	46.000000	-3.000000	-4.000000	-44.000000	-325.000000	-71.000000	0.117187	0.302734	0.283203	0.034180	0.000000	0.000000	0.000000	0.000000
8/25/2022	3:57:04 PM	105134.000000	173636.000000	34967.000000	54394.000000	29929.000000	64797.000000	49149.000000	86750.000000	858.000000	-6964.000000	-4057.000000	68.000000	15.000000	0.000000	-43.000000	-327.000000	-72.000000	0.141602	0.288086	0.292969	0.034180	0.000000	0.000000	0.000000	0.000000
8/25/2022	3:57:04 PM	104442.000000	174180.000000	35011.000000	54129.000000	30230.000000	66663.000000	48997.000000	87708.000000	896.000000	-7027.000000	-4092.000000	6.000000	84.000000	-8.000000	-42.000000	-327.000000	-68.000000	0.122070	0.288086	0.278320	0.034180	0.000000	0.000000	0.000000	0.000000
8/25/2022	3:57:04 PM	104738.000000	173636.000000	34989.000000	54129.000000	29913.000000	65561.000000	48804.000000	86547.000000	961.000000	-6952.000000	-4120.000000	24.000000	12.000000	-20.000000	-35.000000	-333.000000	-62.000000	0.107422	0.263672	0.283203	0.019531	1.000000	1.000000	1.000000	0.000000
8/25/2022	3:57:04 PM	104936.000000	175834.000000	34857.000000	54102.000000	29897.000000	65794.000000	49346.000000	86345.000000	1070.000000	-6972.000000	-4175.000000	16.000000	-8.000000	-43.000000	-40.000000	-337.000000	-54.000000	0.102539	0.263672	0.268555	0.034180	1.000000	1.000000	1.000000	0.000000
8/25/2022	3:57:04 PM	104936.000000	175556.000000	34781.000000	53710.000000	29848.000000	64684.000000	48890.000000	86615.000000	1016.000000	-6960.000000	-4234.000000	38.000000	29.000000	-5.000000	-41.000000	-332.000000	-52.000000	0.107422	0.253906	0.273437	0.029297	1.000000	1.000000	1.000000	0.000000
8/25/2022	3:57:04 PM	105533.000000	174180.000000	34967.000000	53478.000000	29792.000000	64235.000000	48804.000000	86011.000000	1039.000000	-6970.000000	-4178.000000	46.000000	13.000000	12.000000	-35.000000	-331.000000	-53.000000	0.122070	0.258789	0.273437	0.034180	1.000000	1.000000	1.000000	0.000000
8/25/2022	3:57:04 PM	104639.000000	174180.000000	34978.000000	53971.000000	29768.000000	64571.000000	48976.000000	85878.000000	991.000000	-6964.000000	-4111.000000	57.000000	27.000000	37.000000	-35.000000	-327.000000	-59.000000	0.107422	0.263672	0.273437	0.034180	1.000000	1.000000	1.000000	0.000000
8/25/2022	3:57:04 PM	105234.000000	173365.000000	34978.000000	53814.000000	29792.000000	64872.000000	49214.000000	86212.000000	940.000000	-7000.000000	-4171.000000	27.000000	51.000000	-1.000000	-32.000000	-323.000000	-59.000000	0.112305	0.278320	0.278320	0.029297	1.000000	1.000000	1.000000	0.000000
8/25/2022	3:57:04 PM	106240.000000	173636.000000	35066.000000	53814.000000	29905.000000	64533.000000	49214.000000	86345.000000	935.000000	-6992.000000	-4138.000000	70.000000	21.000000	5.000000	-32.000000	-325.000000	-63.000000	0.122070	0.278320	0.273437	0.029297	1.000000	1.000000	1.000000	0.000000
8/25/2022	3:57:04 PM	104639.000000	173908.000000	34989.000000	53658.000000	29840.000000	64646.000000	49214.000000	86954.000000	940.000000	-6951.000000	-4207.000000	40.000000	82.000000	-25.000000	-33.000000	-329.000000	-59.000000	0.102539	0.268555	0.288086	0.029297	1.000000	1.000000	1.000000	0.000000
8/25/2022	3:57:04 PM	105234.000000	172826.000000	35022.000000	54023.000000	29760.000000	64646.000000	49367.000000	86886.000000	1079.000000	-6932.000000	-4396.000000	159.000000	-25.000000	7.000000	-31.000000	-336.000000	-52.000000	0.126953	0.263672	0.288086	0.029297	1.000000	1.000000	1.000000	0.000000
8/25/2022	3:57:04 PM	104541.000000	173636.000000	34770.000000	53736.000000	29641.000000	64013.000000	48825.000000	87639.000000	1199.000000	-6948.000000	-4812.000000	280.000000	118.000000	29.000000	-33.000000	-329.000000	-54.000000	0.156250	0.288086	0.292969	0.029297	1.000000	1.000000	1.000000	0.000000
8/25/2022	3:57:04 PM	105634.000000	172557.000000	34727.000000	53840.000000	29570.000000	64309.000000	48107.000000	88618.000000	1257.000000	-6963.000000	-4504.000000	520.000000	152.000000	120.000000	-36.000000	-317.000000	-53.000000	0.122070	0.253906	0.273437	0.029297	1.000000	1.000000	1.000000	0.000000
8/25/2022	3:57:04 PM	105134.000000	173365.000000	34792.000000	54076.000000	29555.000000	64721.000000	48740.000000	88266.000000	1068.000000	-7066.000000	-4301.000000	594.000000	134.000000	113.000000	-35.000000	-319.000000	-56.000000	0.126953	0.249023	0.288086	0.019531	1.000000	1.000000	1.000000	0.000000
8/25/2022	3:57:04 PM	105734.000000	174180.000000	34890.000000	54287.000000	29697.000000	66823.000000	49019.000000	87986.000000	894.000000	-7083.000000	-3777.000000	754.000000	23.000000	128.000000	-36.000000	-328.000000	-60.000000	0.131836	0.234375	0.283203	0.019531	1.000000	1.000000	1.000000	0.000000
8/25/2022	3:57:04 PM	105936.000000	174180.000000	35055.000000	54340.000000	29985.000000	66583.000000	49084.000000	89402.000000	996.000000	-7279.000000	-3509.000000	571.000000	157.000000	139.000000	-35.000000	-326.000000	-60.000000	0.156250	0.229492	0.292969	0.034180	1.000000	1.000000	1.000000	0.000000
8/25/2022	3:57:04 PM	107059.000000	173365.000000	35055.000000	54076.000000	30263.000000	69238.000000	49084.000000	88406.000000	840.000000	-7274.000000	-3079.000000	579.000000	72.000000	138.000000	-32.000000	-325.000000	-60.000000	0.122070	0.209961	0.283203	0.029297	1.000000	1.000000	1.000000	0.000000
8/25/2022	3:57:04 PM	105533.000000	173365.000000	35133.000000	54367.000000	30605.000000	69411.000000	49236.000000	88973.000000	959.000000	-7415.000000	-3323.000000	463.000000	36.000000	163.000000	-41.000000	-326.000000	-65.000000	0.170898	0.239258	0.288086	0.034180	1.000000	1.000000	1.000000	0.000000
8/25/2022	3:57:04 PM	106240.000000	173908.000000	35033.000000	54554.000000	30230.000000	69324.000000	48804.000000	89044.000000	711.000000	-7436.000000	-3098.000000	530.000000	77.000000	185.000000	-44.000000	-323.000000	-69.000000	0.166016	0.229492	0.283203	0.034180	1.000000	1.000000	1.000000	0.000000
8/25/2022	3:57:04 PM	106956.000000	174180.000000	35312.000000	54877.000000	30495.000000	69454.000000	49588.000000	88266.000000	437.000000	-7569.000000	-2851.000000	286.000000	243.000000	152.000000	-41.000000	-325.000000	-64.000000	0.146484	0.253906	0.292969	0.034180	1.000000	1.000000	1.000000	0.000000
8/25/2022	3:57:05 PM	107265.000000	174180.000000	35357.000000	55068.000000	30288.000000	69628.000000	49967.000000	87986.000000	572.000000	-7594.000000	-2828.000000	275.000000	27.000000	67.000000	-44.000000	-332.000000	-66.000000	0.205078	0.278320	0.283203	0.034180	1.000000	1.000000	1.000000	0.000000
8/25/2022	3:57:05 PM	107577.000000	172290.000000	35233.000000	54634.000000	30304.000000	65833.000000	49566.000000	86212.000000	819.000000	-7591.000000	-2839.000000	207.000000	-62.000000	-14.000000	-40.000000	-332.000000	-68.000000	0.156250	0.249023	0.273437	0.034180	1.000000	1.000000	1.000000	0.000000
8/25/2022	3:57:05 PM	106240.000000	172557.000000	35166.000000	55177.000000	30529.000000	68009.000000	49765.000000	87227.000000	703.000000	-7657.000000	-2832.000000	186.000000	-50.000000	4.000000	-35.000000	-329.000000	-60.000000	0.156250	0.263672	0.273437	0.034180	1.000000	1.000000	1.000000	0.000000
8/25/2022	3:57:05 PM	106341.000000	172023.000000	35200.000000	54742.000000	30681.000000	65561.000000	49922.000000	87986.000000	746.000000	-7498.000000	-2750.000000	59.000000	-48.000000	31.000000	-36.000000	-322.000000	-60.000000	0.131836	0.239258	0.288086	0.039062	1.000000	1.000000	1.000000	0.000000
8/25/2022	3:57:05 PM	107265.000000	171228.000000	34967.000000	54527.000000	30563.000000	65561.000000	49455.000000	88126.000000	920.000000	-7606.000000	-2957.000000	78.000000	-20.000000	48.000000	-36.000000	-320.000000	-59.000000	0.141602	0.253906	0.273437	0.039062	1.000000	1.000000	1.000000	0.000000
8/25/2022	3:57:05 PM	105333.000000	171492.000000	35177.000000	54554.000000	30613.000000	67595.000000	49632.000000	88336.000000	688.000000	-7611.000000	-2917.000000	19.000000	81.000000	86.000000	-42.000000	-330.000000	-56.000000	0.136719	0.258789	0.288086	0.039062	1.000000	1.000000	1.000000	0.000000
8/25/2022	3:57:05 PM	106138.000000	171228.000000	35357.000000	54208.000000	30571.000000	65445.000000	49411.000000	87708.000000	552.000000	-7553.000000	-3013.000000	51.000000	62.000000	49.000000	-46.000000	-328.000000	-62.000000	0.122070	0.253906	0.283203	0.034180	1.000000	1.000000	1.000000	0.000000
8/25/2022	3:57:05 PM	105734.000000	172557.000000	35289.000000	54823.000000	30808.000000	64948.000000	49171.000000	88336.000000	608.000000	-7700.000000	-3340.000000	35.000000	13.000000	-3.000000	-41.000000	-320.000000	-74.000000	0.170898	0.288086	0.278320	0.043945	1.000000	1.000000	1.000000	0.000000
8/25/2022	3:57:05 PM	105835.000000	171228.000000	35200.000000	55122.000000	30470.000000	66226.000000	49389.000000	87917.000000	650.000000	-7548.000000	-2931.000000	135.000000	38.000000	-72.000000	-41.000000	-320.000000	-74.000000	0.126953	0.249023	0.273437	0.039062	1.000000	1.000000	1.000000	0.000000
8/25/2022	3:57:05 PM	105734.000000	169919.000000	35357.000000	54904.000000	30462.000000	65794.000000	49610.000000	89115.000000	819.000000	-7533.000000	-2829.000000	75.000000	-46.000000	-42.000000	-42.000000	-320.000000	-78.000000	0.112305	0.229492	0.273437	0.029297	1.000000	1.000000	1.000000	0.000000
8/25/2022	3:57:05 PM	105134.000000	172557.000000	35267.000000	54769.000000	30605.000000	68894.000000	49967.000000	88901.000000	845.000000	-7638.000000	-2926.000000	-42.000000	45.000000	-13.000000	-37.000000	-325.000000	-72.000000	0.131836	0.229492	0.273437	0.034180	1.000000	1.000000	1.000000	0.000000
8/25/2022	3:57:05 PM	105533.000000	172557.000000	35323.000000	54500.000000	30521.000000	69324.000000	49214.000000	88973.000000	644.000000	-7572.000000	-3054.000000	23.000000	72.000000	-9.000000	-33.000000	-325.000000	-82.000000	0.107422	0.209961	0.273437	0.039062	1.000000	1.000000	1.000000	0.000000
8/25/2022	3:57:05 PM	105333.000000	173908.000000	35447.000000	54877.000000	30563.000000	69979.000000	49632.000000	88830.000000	530.000000	-7616.000000	-3157.000000	129.000000	84.000000	-52.000000	-37.000000	-325.000000	-81.000000	0.122070	0.214844	0.278320	0.043945	1.000000	1.000000	1.000000	0.000000
8/25/2022	3:57:05 PM	104936.000000	174180.000000	35357.000000	55397.000000	30312.000000	69454.000000	49236.000000	88196.000000	675.000000	-7589.000000	-3085.000000	144.000000	105.000000	-79.000000	-38.000000	-326.000000	-76.000000	0.131836	0.219727	0.283203	0.039062	1.000000	1.000000	1.000000	0.000000
8/25/2022	3:57:05 PM	104051.000000	175003.000000	35503.000000	55013.000000	30596.000000	69411.000000	49855.000000	88126.000000	815.000000	-7625.000000	-2838.000000	205.000000	-16.000000	-118.000000	-34.000000	-327.000000	-80.000000	0.131836	0.219727	0.278320	0.039062	1.000000	1.000000	1.000000	0.000000
8/25/2022	3:57:05 PM	103663.000000	173636.000000	35481.000000	54986.000000	30989.000000	68937.000000	49699.000000	89691.000000	872.000000	-7635.000000	-2671.000000	145.000000	-6.000000	-112.000000	-36.000000	-319.000000	-82.000000	0.136719	0.219727	0.278320	0.039062	1.000000	1.000000	1.000000	0.000000
8/25/2022	3:57:05 PM	104639.000000	172557.000000	35481.000000	54715.000000	30903.000000	69497.000000	49610.000000	89187.000000	820.000000	-7651.000000	-2686.000000	28.000000	12.000000	-110.000000	-40.000000	-317.000000	-79.000000	0.126953	0.229492	0.273437	0.039062	1.000000	1.000000	1.000000	0.000000
8/25/2022	3:57:05 PM	105035.000000	171228.000000	35447.000000	53840.000000	30989.000000	68597.000000	49455.000000	88056.000000	927.000000	-7618.000000	-2763.000000	28.000000	-48.000000	-79.000000	-41.000000	-311.000000	-80.000000	0.126953	0.209961	0.273437	0.039062	1.000000	1.000000	1.000000	0.000000
8/25/2022	3:57:05 PM	105035.000000	170965.000000	35469.000000	53971.000000	30971.000000	64910.000000	48933.000000	88126.000000	972.000000	-7623.000000	-2941.000000	-33.000000	35.000000	-30.000000	-42.000000	-318.000000	-72.000000	0.126953	0.239258	0.278320	0.039062	1.000000	1.000000	1.000000	0.000000
8/25/2022	3:57:05 PM	104837.000000	170965.000000	35447.000000	54102.000000	30817.000000	66068.000000	48911.000000	88266.000000	850.000000	-7623.000000	-2963.000000	4.000000	113.000000	-28.000000	-45.000000	-323.000000	-65.000000	0.117187	0.234375	0.273437	0.034180	1.000000	1.000000	1.000000	0.000000
8/25/2022	3:57:06 PM	105835.000000	171228.000000	35413.000000	54447.000000	30842.000000	66147.000000	49544.000000	87639.000000	867.000000	-7643.000000	-2914.000000	77.000000	-8.000000	-4.000000	-44.000000	-316.000000	-71.000000	0.185547	0.244141	0.283203	0.043945	1.000000	1.000000	1.000000	0.000000
8/25/2022	3:57:06 PM	104149.000000	171228.000000	35379.000000	53997.000000	30834.000000	64797.000000	49389.000000	89258.000000	936.000000	-7602.000000	-2856.000000	25.000000	6.000000	-12.000000	-44.000000	-312.000000	-79.000000	0.161133	0.224609	0.288086	0.043945	1.000000	1.000000	1.000000	0.000000
8/25/2022	3:57:06 PM	105333.000000	172023.000000	35629.000000	53919.000000	30817.000000	64835.000000	48590.000000	87778.000000	880.000000	-7621.000000	-2822.000000	42.000000	-52.000000	-29.000000	-36.000000	-307.000000	-80.000000	0.136719	0.219727	0.292969	0.048828	1.000000	1.000000	1.000000	0.000000
8/25/2022	3:57:06 PM	104837.000000	171492.000000	35606.000000	53997.000000	30877.000000	67024.000000	48590.000000	87570.000000	985.000000	-7613.000000	-2922.000000	-2.000000	-36.000000	1.000000	-33.000000	-309.000000	-73.000000	0.161133	0.224609	0.297852	0.058594	1.000000	1.000000	1.000000	0.000000
8/25/2022	3:57:06 PM	104837.000000	171757.000000	35424.000000	53919.000000	30749.000000	66743.000000	49041.000000	88336.000000	988.000000	-7602.000000	-2922.000000	41.000000	69.000000	39.000000	-42.000000	-319.000000	-73.000000	0.151367	0.234375	0.302734	0.053711	1.000000	1.000000	1.000000	0.000000
8/25/2022	3:57:06 PM	104639.000000	171492.000000	35594.000000	53997.000000	30681.000000	65600.000000	49236.000000	88830.000000	846.000000	-7614.000000	-2846.000000	65.000000	34.000000	57.000000	-45.000000	-321.000000	-80.000000	0.166016	0.249023	0.307617	0.053711	1.000000	1.000000	1.000000	0.000000
8/25/2022	3:57:06 PM	103954.000000	170965.000000	35177.000000	53788.000000	30885.000000	66226.000000	49149.000000	87847.000000	782.000000	-7617.000000	-2826.000000	39.000000	45.000000	22.000000	-41.000000	-313.000000	-76.000000	0.146484	0.268555	0.307617	0.048828	1.000000	1.000000	1.000000	0.000000
8/25/2022	3:57:06 PM	104051.000000	171228.000000	35267.000000	53478.000000	31101.000000	66107.000000	49654.000000	88196.000000	786.000000	-7612.000000	-2887.000000	20.000000	14.000000	4.000000	-35.000000	-316.000000	-78.000000	0.146484	0.244141	0.312500	0.048828	1.000000	1.000000	1.000000	0.000000
8/25/2022	3:57:06 PM	104541.000000	172023.000000	35267.000000	53840.000000	31041.000000	65639.000000	49566.000000	88266.000000	880.000000	-7617.000000	-2889.000000	39.000000	-20.000000	-8.000000	-43.000000	-314.000000	-83.000000	0.151367	0.234375	0.312500	0.048828	1.000000	1.000000	1.000000	0.000000
8/25/2022	3:57:06 PM	104344.000000	171228.000000	35357.000000	54050.000000	31154.000000	65600.000000	49411.000000	87432.000000	936.000000	-7614.000000	-2882.000000	23.000000	1.000000	4.000000	-46.000000	-316.000000	-80.000000	0.141602	0.214844	0.327148	0.043945	1.000000	1.000000	1.000000	0.000000
8/25/2022	3:57:06 PM	103374.000000	172023.000000	35537.000000	54129.000000	31454.000000	66147.000000	49654.000000	88406.000000	941.000000	-7594.000000	-2862.000000	50.000000	-3.000000	15.000000	-35.000000	-326.000000	-81.000000	0.126953	0.209961	0.327148	0.043945	1.000000	1.000000	1.000000	0.000000
8/25/2022	3:57:06 PM	103663.000000	171492.000000	35526.000000	53892.000000	31268.000000	65716.000000	49411.000000	88126.000000	855.000000	-7590.000000	-2837.000000	27.000000	42.000000	23.000000	-33.000000	-327.000000	-80.000000	0.136719	0.219727	0.336914	0.048828	1.000000	1.000000	1.000000	0.000000
8/25/2022	3:57:06 PM	104344.000000	172826.000000	35789.000000	54023.000000	31075.000000	65369.000000	49944.000000	88406.000000	706.000000	-7643.000000	-2920.000000	-16.000000	44.000000	11.000000	-36.000000	-327.000000	-78.000000	0.146484	0.209961	0.327148	0.053711	1.000000	1.000000	1.000000	0.000000
8/25/2022	3:57:06 PM	105734.000000	171757.000000	35709.000000	54208.000000	31110.000000	64272.000000	49989.000000	88126.000000	852.000000	-7581.000000	-2939.000000	40.000000	-16.000000	-23.000000	-45.000000	-322.000000	-80.000000	0.156250	0.224609	0.312500	0.048828	1.000000	1.000000	1.000000	0.000000
8/25/2022	3:57:06 PM	104639.000000	172826.000000	35594.000000	53866.000000	30946.000000	66743.000000	49632.000000	88759.000000	846.000000	-7626.000000	-2960.000000	25.000000	28.000000	-33.000000	-46.000000	-318.000000	-74.000000	0.146484	0.219727	0.332031	0.048828	1.000000	1.000000	1.000000	0.000000
8/25/2022	3:57:06 PM	105234.000000	170965.000000	35560.000000	54447.000000	30937.000000	64721.000000	49566.000000	89474.000000	954.000000	-7608.000000	-2923.000000	71.000000	-23.000000	5.000000	-42.000000	-323.000000	-76.000000	0.151367	0.219727	0.327148	0.048828	1.000000	1.000000	1.000000	0.000000
8/25/2022	3:57:06 PM	104639.000000	170702.000000	35572.000000	54182.000000	30842.000000	65062.000000	49632.000000	88336.000000	861.000000	-7605.000000	-2840.000000	37.000000	31.000000	19.000000	-34.000000	-323.000000	-80.000000	0.141602	0.205078	0.307617	0.043945	1.000000	1.000000	0.000000	0.000000
8/25/2022	3:57:06 PM	104541.000000	170702.000000	35594.000000	54182.000000	30894.000000	64910.000000	49967.000000	87778.000000	846.000000	-7602.000000	-2907.000000	44.000000	24.000000	29.000000	-31.000000	-318.000000	-72.000000	0.136719	0.209961	0.302734	0.034180	1.000000	1.000000	0.000000	0.000000
8/25/2022	3:57:06 PM	103760.000000	170965.000000	35583.000000	54340.000000	30851.000000	65215.000000	49521.000000	87570.000000	811.000000	-7615.000000	-2868.000000	48.000000	38.000000	13.000000	-41.000000	-320.000000	-73.000000	0.122070	0.200195	0.312500	0.039062	1.000000	1.000000	0.000000	0.000000
8/25/2022	3:57:06 PM	104639.000000	171757.000000	35560.000000	54261.000000	31321.000000	64759.000000	49610.000000	87501.000000	855.000000	-7650.000000	-2902.000000	22.000000	26.000000	1.000000	-44.000000	-320.000000	-83.000000	0.131836	0.195312	0.297852	0.048828	1.000000	1.000000	0.000000	0.000000
8/25/2022	3:57:07 PM	103760.000000	172290.000000	35859.000000	53762.000000	31154.000000	65600.000000	49654.000000	86615.000000	811.000000	-7615.000000	-2871.000000	48.000000	9.000000	7.000000	-40.000000	-321.000000	-87.000000	0.131836	0.180664	0.292969	0.043945	1.000000	1.000000	0.000000	0.000000
8/25/2022	3:57:07 PM	103760.000000	173095.000000	35743.000000	54102.000000	31206.000000	65253.000000	49566.000000	86480.000000	809.000000	-7614.000000	-2890.000000	34.000000	28.000000	-11.000000	-37.000000	-327.000000	-78.000000	0.126953	0.195312	0.288086	0.048828	1.000000	1.000000	0.000000	0.000000
8/25/2022	3:57:07 PM	103566.000000	171757.000000	35686.000000	53658.000000	30980.000000	65100.000000	49588.000000	86278.000000	797.000000	-7623.000000	-2854.000000	41.000000	16.000000	-5.000000	-42.000000	-319.000000	-74.000000	0.126953	0.205078	0.297852	0.048828	1.000000	1.000000	0.000000	0.000000
8/25/2022	3:57:07 PM	105035.000000	172557.000000	35720.000000	53788.000000	30911.000000	65600.000000	49877.000000	88056.000000	853.000000	-7637.000000	-2918.000000	4.000000	39.000000	-8.000000	-46.000000	-312.000000	-81.000000	0.117187	0.214844	0.288086	0.043945	1.000000	1.000000	0.000000	0.000000
8/25/2022	3:57:07 PM	104541.000000	172557.000000	35629.000000	53684.000000	31145.000000	65484.000000	49855.000000	87432.000000	779.000000	-7611.000000	-2868.000000	75.000000	30.000000	-9.000000	-45.000000	-317.000000	-83.000000	0.122070	0.195312	0.302734	0.039062	1.000000	1.000000	0.000000	0.000000
8/25/2022	3:57:07 PM	103278.000000	172557.000000	35244.000000	53503.000000	31241.000000	63902.000000	49721.000000	86480.000000	885.000000	-7611.000000	-2879.000000	10.000000	23.000000	7.000000	-42.000000	-317.000000	-83.000000	0.112305	0.205078	0.297852	0.039062	1.000000	1.000000	0.000000	0.000000
8/25/2022	3:57:07 PM	104344.000000	172290.000000	35278.000000	53375.000000	30920.000000	64835.000000	49521.000000	87778.000000	750.000000	-7615.000000	-2921.000000	22.000000	57.000000	-2.000000	-35.000000	-317.000000	-79.000000	0.107422	0.190430	0.288086	0.039062	1.000000	1.000000	0.000000	0.000000
8/25/2022	3:57:07 PM	103857.000000	172557.000000	35424.000000	53452.000000	30954.000000	64198.000000	49346.000000	87090.000000	864.000000	-7638.000000	-2920.000000	69.000000	-17.000000	-14.000000	-36.000000	-322.000000	-73.000000	0.112305	0.200195	0.302734	0.043945	1.000000	1.000000	0.000000	0.000000
8/25/2022	3:57:07 PM	104541.000000	171228.000000	35345.000000	53529.000000	30774.000000	64309.000000	49411.000000	86615.000000	856.000000	-7596.000000	-2808.000000	57.000000	20.000000	-5.000000	-33.000000	-325.000000	-75.000000	0.126953	0.214844	0.317383	0.039062	1.000000	1.000000	0.000000	0.000000
8/25/2022	3:57:07 PM	104149.000000	172557.000000	35515.000000	53658.000000	30800.000000	64646.000000	49588.000000	86615.000000	802.000000	-7637.000000	-2838.000000	31.000000	9.000000	-11.000000	-33.000000	-317.000000	-73.000000	0.136719	0.209961	0.317383	0.043945	1.000000	1.000000	0.000000	0.000000
8/25/2022	3:57:07 PM	103954.000000	172826.000000	35111.000000	53684.000000	30937.000000	64571.000000	49721.000000	87570.000000	804.000000	-7596.000000	-2819.000000	7.000000	1.000000	8.000000	-41.000000	-316.000000	-75.000000	0.117187	0.205078	0.317383	0.034180	1.000000	1.000000	0.000000	0.000000
8/25/2022	3:57:07 PM	103760.000000	172290.000000	35189.000000	53788.000000	31058.000000	64421.000000	47308.000000	86682.000000	884.000000	-7569.000000	-2851.000000	-65.000000	2.000000	17.000000	-42.000000	-321.000000	-81.000000	0.136719	0.249023	0.356445	0.043945	1.000000	1.000000	0.000000	0.000000
8/25/2022	3:57:07 PM	104051.000000	167612.000000	35312.000000	53426.000000	31979.000000	61600.000000	47817.000000	88266.000000	832.000000	-7777.000000	-3175.000000	-519.000000	47.000000	263.000000	-44.000000	-319.000000	-75.000000	0.156250	0.307617	0.444336	0.073242	1.000000	1.000000	0.000000	0.000000
8/25/2022	3:57:07 PM	105533.000000	167108.000000	34705.000000	53814.000000	31933.000000	63068.000000	50375.000000	88056.000000	914.000000	-7272.000000	-3146.000000	-452.000000	74.000000	290.000000	-40.000000	-318.000000	-73.000000	0.278320	0.322266	0.449219	0.073242	1.000000	1.000000	0.000000	0.000000
8/25/2022	3:57:07 PM	103954.000000	166109.000000	34150.000000	54287.000000	32089.000000	59874.000000	52817.000000	86750.000000	666.000000	-7707.000000	-3183.000000	-586.000000	243.000000	304.000000	-33.000000	-320.000000	-76.000000	0.322266	0.400391	0.537109	0.083008	1.000000	1.000000	0.000000	0.000000
8/25/2022	3:57:07 PM	103278.000000	165614.000000	34522.000000	52993.000000	32173.000000	59394.000000	52691.000000	87432.000000	547.000000	-7522.000000	-3623.000000	-459.000000	513.000000	159.000000	-35.000000	-319.000000	-75.000000	0.302734	0.390625	0.600586	0.073242	1.000000	1.000000	0.000000	0.000000
8/25/2022	3:57:07 PM	102800.000000	163904.000000	33849.000000	53452.000000	31374.000000	59874.000000	50352.000000	83933.000000	754.000000	-8128.000000	-3671.000000	300.000000	403.000000	-189.000000	-40.000000	-325.000000	-66.000000	0.366211	0.498047	0.756836	0.083008	1.000000	1.000000	0.000000	0.000000
8/25/2022	3:57:07 PM	102421.000000	161522.000000	34836.000000	52968.000000	30937.000000	58151.000000	46594.000000	80878.000000	541.000000	-7188.000000	-3289.000000	701.000000	632.000000	-203.000000	-36.000000	-329.000000	-57.000000	0.312500	0.468750	0.634766	0.097656	1.000000	1.000000	0.000000	0.000000
8/25/2022	3:57:07 PM	101858.000000	159665.000000	34836.000000	52393.000000	30296.000000	55758.000000	43699.000000	80702.000000	1067.000000	-7540.000000	-2774.000000	664.000000	202.000000	-392.000000	-38.000000	-323.000000	-60.000000	0.278320	0.458984	0.844727	0.073242	1.000000	1.000000	0.000000	0.000000
8/25/2022	3:57:07 PM	100841.000000	160356.000000	34458.000000	52716.000000	30132.000000	56610.000000	43072.000000	82133.000000	1195.000000	-7487.000000	-2835.000000	419.000000	797.000000	-76.000000	-42.000000	-319.000000	-63.000000	0.332031	0.454102	0.678711	0.063477	1.000000	1.000000	0.000000	0.000000
8/25/2022	3:57:08 PM	100295.000000	156077.000000	35503.000000	52418.000000	29555.000000	54581.000000	43257.000000	80062.000000	1263.000000	-7508.000000	-2792.000000	419.000000	672.000000	-94.000000	-41.000000	-320.000000	-57.000000	0.590820	0.532227	0.649414	0.112305	1.000000	1.000000	0.000000	0.000000
8/25/2022	3:57:08 PM	99043.000000	155422.000000	35882.000000	52074.000000	29848.000000	55314.000000	42301.000000	78813.000000	1129.000000	-7685.000000	-2599.000000	223.000000	186.000000	-2.000000	-40.000000	-321.000000	-52.000000	1.040039	0.683594	0.908203	0.131836	1.000000	1.000000	0.000000	0.000000
8/25/2022	3:57:08 PM	94095.000000	153490.000000	35824.000000	52766.000000	29744.000000	54877.000000	42415.000000	77171.000000	1119.000000	-7565.000000	-2637.000000	175.000000	502.000000	-33.000000	-42.000000	-326.000000	-53.000000	0.922852	0.571289	0.786133	0.107422	1.000000	1.000000	0.000000	0.000000
8/25/2022	3:57:08 PM	97823.000000	154343.000000	34554.000000	52792.000000	29390.000000	53997.000000	42077.000000	76010.000000	1190.000000	-7783.000000	-2681.000000	155.000000	268.000000	-39.000000	-49.000000	-326.000000	-57.000000	0.966797	0.512695	0.668945	0.112305	1.000000	1.000000	0.000000	0.000000
8/25/2022	3:57:08 PM	98692.000000	155640.000000	34426.000000	52817.000000	28894.000000	53632.000000	41808.000000	75906.000000	1152.000000	-7497.000000	-2589.000000	183.000000	167.000000	10.000000	-50.000000	-319.000000	-56.000000	0.712891	0.507812	0.659180	0.117187	1.000000	1.000000	0.000000	0.000000
8/25/2022	3:57:08 PM	97737.000000	155640.000000	34576.000000	52542.000000	29129.000000	54796.000000	42157.000000	74035.000000	1208.000000	-7810.000000	-2505.000000	129.000000	182.000000	64.000000	-44.000000	-320.000000	-56.000000	0.688477	0.483398	0.615234	0.097656	1.000000	1.000000	0.000000	0.000000
8/25/2022	3:57:08 PM	97823.000000	155205.000000	34608.000000	52892.000000	29144.000000	54581.000000	42157.000000	75238.000000	1155.000000	-7371.000000	-2576.000000	382.000000	67.000000	-105.000000	-42.000000	-318.000000	-55.000000	0.576172	0.444336	0.595703	0.083008	1.000000	1.000000	0.000000	0.000000
8/25/2022	3:57:08 PM	97480.000000	154773.000000	33983.000000	52766.000000	29352.000000	53919.000000	41808.000000	74084.000000	1345.000000	-7721.000000	-2378.000000	90.000000	32.000000	-7.000000	-44.000000	-311.000000	-57.000000	0.502930	0.400391	0.532227	0.078125	1.000000	1.000000	0.000000	0.000000
8/25/2022	3:57:08 PM	98255.000000	154558.000000	33994.000000	52817.000000	29649.000000	54634.000000	41840.000000	74883.000000	1140.000000	-7712.000000	-2233.000000	-17.000000	78.000000	87.000000	-49.000000	-316.000000	-62.000000	0.483398	0.395508	0.444336	0.078125	1.000000	1.000000	0.000000	0.000000
8/25/2022	3:57:08 PM	97909.000000	153067.000000	33973.000000	53606.000000	29220.000000	54986.000000	42109.000000	73254.000000	1298.000000	-7736.000000	-2478.000000	101.000000	-60.000000	-40.000000	-50.000000	-321.000000	-57.000000	0.449219	0.410156	0.415039	0.078125	1.000000	1.000000	0.000000	0.000000
8/25/2022	3:57:08 PM	96885.000000	153067.000000	33869.000000	53478.000000	29052.000000	54261.000000	42382.000000	74035.000000	1225.000000	-7678.000000	-2444.000000	76.000000	-35.000000	-35.000000	-46.000000	-316.000000	-50.000000	0.468750	0.366211	0.419922	0.063477	1.000000	1.000000	0.000000	0.000000
8/25/2022	3:57:08 PM	97737.000000	147579.000000	33715.000000	52766.000000	28655.000000	55842.000000	42593.000000	74883.000000	1282.000000	-7675.000000	-2450.000000	77.000000	57.000000	22.000000	-43.000000	-317.000000	-57.000000	0.473633	0.395508	0.405273	0.068359	1.000000	1.000000	0.000000	0.000000
8/25/2022	3:57:08 PM	96800.000000	144133.000000	33849.000000	52741.000000	28841.000000	54554.000000	43156.000000	75238.000000	1204.000000	-7753.000000	-2442.000000	39.000000	19.000000	26.000000	-43.000000	-326.000000	-63.000000	0.483398	0.449219	0.385742	0.078125	1.000000	1.000000	0.000000	0.000000
8/25/2022	3:57:08 PM	97651.000000	152020.000000	33797.000000	52468.000000	29045.000000	54959.000000	42692.000000	74432.000000	1228.000000	-7685.000000	-2283.000000	27.000000	-40.000000	49.000000	-45.000000	-325.000000	-53.000000	0.458984	0.454102	0.390625	0.068359	1.000000	1.000000	0.000000	0.000000
8/25/2022	3:57:08 PM	96632.000000	152437.000000	33654.000000	52246.000000	29144.000000	54261.000000	42840.000000	73936.000000	1194.000000	-7740.000000	-2393.000000	-16.000000	54.000000	10.000000	-44.000000	-321.000000	-52.000000	0.434570	0.458984	0.395508	0.083008	1.000000	1.000000	0.000000	0.000000
8/25/2022	3:57:08 PM	97224.000000	153279.000000	33113.000000	52147.000000	29014.000000	54500.000000	42642.000000	73691.000000	1287.000000	-7782.000000	-2441.000000	43.000000	-87.000000	13.000000	-49.000000	-318.000000	-57.000000	0.395508	0.454102	0.410156	0.078125	1.000000	1.000000	0.000000	0.000000
8/25/2022	3:57:08 PM	96885.000000	152857.000000	33291.000000	52766.000000	28834.000000	54742.000000	42922.000000	74482.000000	1332.000000	-7733.000000	-2446.000000	62.000000	78.000000	-29.000000	-50.000000	-313.000000	-63.000000	0.454102	0.507812	0.444336	0.083008	1.000000	1.000000	0.000000	0.000000
8/25/2022	3:57:08 PM	97565.000000	153490.000000	32975.000000	52716.000000	28811.000000	54904.000000	43324.000000	74035.000000	1192.000000	-7665.000000	-2401.000000	58.000000	-32.000000	5.000000	-45.000000	-316.000000	-63.000000	0.493164	0.537109	0.395508	0.073242	1.000000	1.000000	0.000000	0.000000
8/25/2022	3:57:08 PM	97565.000000	153915.000000	33431.000000	52817.000000	29321.000000	54904.000000	43122.000000	74084.000000	1312.000000	-7712.000000	-2328.000000	85.000000	-53.000000	-27.000000	-47.000000	-314.000000	-63.000000	0.527344	0.537109	0.415039	0.092773	1.000000	1.000000	0.000000	0.000000
8/25/2022	3:57:08 PM	97737.000000	153915.000000	33261.000000	52542.000000	28977.000000	54208.000000	43819.000000	75238.000000	1247.000000	-7650.000000	-2410.000000	24.000000	-14.000000	-16.000000	-46.000000	-312.000000	-67.000000	0.458984	0.585937	0.415039	0.107422	1.000000	1.000000	0.000000	0.000000
8/25/2022	3:57:09 PM	97565.000000	153490.000000	33024.000000	52418.000000	28924.000000	55314.000000	43871.000000	75136.000000	1332.000000	-7793.000000	-2463.000000	-32.000000	-43.000000	-1.000000	-51.000000	-313.000000	-65.000000	0.429687	0.541992	0.390625	0.126953	1.000000	1.000000	0.000000	0.000000
8/25/2022	3:57:09 PM	97909.000000	154343.000000	32955.000000	52468.000000	29007.000000	55758.000000	43290.000000	74682.000000	1256.000000	-7692.000000	-2512.000000	64.000000	42.000000	6.000000	-56.000000	-311.000000	-56.000000	0.385742	0.546875	0.375977	0.107422	1.000000	1.000000	0.000000	0.000000
8/25/2022	3:57:09 PM	97909.000000	154558.000000	32985.000000	52716.000000	28992.000000	55842.000000	43579.000000	74632.000000	1209.000000	-7785.000000	-2450.000000	77.000000	10.000000	-31.000000	-47.000000	-314.000000	-54.000000	0.380859	0.576172	0.371094	0.102539	1.000000	1.000000	0.000000	0.000000
8/25/2022	3:57:09 PM	98255.000000	153915.000000	32732.000000	52344.000000	29236.000000	55369.000000	43358.000000	75136.000000	1266.000000	-7771.000000	-2288.000000	5.000000	-33.000000	47.000000	-46.000000	-317.000000	-60.000000	0.400391	0.576172	0.356445	0.097656	1.000000	1.000000	0.000000	0.000000
8/25/2022	3:57:09 PM	98168.000000	154773.000000	32579.000000	52517.000000	29190.000000	55232.000000	43358.000000	74984.000000	1224.000000	-7727.000000	-2357.000000	10.000000	-13.000000	-3.000000	-44.000000	-316.000000	-65.000000	0.351562	0.615234	0.415039	0.087891	1.000000	1.000000	0.000000	0.000000
8/25/2022	3:57:09 PM	97995.000000	154558.000000	32684.000000	52567.000000	29060.000000	55342.000000	43494.000000	74582.000000	1217.000000	-7702.000000	-2469.000000	24.000000	-20.000000	-1.000000	-38.000000	-314.000000	-64.000000	0.415039	0.659180	0.468750	0.092773	1.000000	1.000000	0.000000	0.000000
8/25/2022	3:57:09 PM	98342.000000	153703.000000	32598.000000	52716.000000	29251.000000	55013.000000	43579.000000	75086.000000	1337.000000	-7652.000000	-2538.000000	52.000000	18.000000	-27.000000	-43.000000	-316.000000	-61.000000	0.434570	0.639648	0.561523	0.122070	1.000000	1.000000	0.000000	0.000000
8/25/2022	3:57:09 PM	98779.000000	153490.000000	32694.000000	52842.000000	29190.000000	54742.000000	43257.000000	74682.000000	1102.000000	-7769.000000	-2408.000000	46.000000	118.000000	12.000000	-49.000000	-317.000000	-62.000000	0.395508	0.673828	0.556641	0.136719	1.000000	1.000000	0.000000	0.000000
8/25/2022	3:57:09 PM	99132.000000	153490.000000	32713.000000	52691.000000	29030.000000	54823.000000	43156.000000	73936.000000	1131.000000	-7762.000000	-2387.000000	106.000000	-9.000000	-36.000000	-51.000000	-319.000000	-57.000000	0.400391	0.615234	0.488281	0.102539	1.000000	1.000000	0.000000	0.000000
8/25/2022	3:57:09 PM	98255.000000	154343.000000	32398.000000	52817.000000	29106.000000	55232.000000	43223.000000	74632.000000	1172.000000	-7726.000000	-2359.000000	29.000000	17.000000	-18.000000	-44.000000	-318.000000	-50.000000	0.385742	0.590820	0.419922	0.087891	1.000000	1.000000	0.000000	0.000000
8/25/2022	3:57:09 PM	97480.000000	154773.000000	32684.000000	52892.000000	28924.000000	54959.000000	42889.000000	74582.000000	1223.000000	-7716.000000	-2403.000000	41.000000	-4.000000	-15.000000	-45.000000	-313.000000	-53.000000	0.419922	0.561523	0.380859	0.107422	1.000000	1.000000	0.000000	0.000000
8/25/2022	3:57:09 PM	98692.000000	153490.000000	32877.000000	53247.000000	28715.000000	54796.000000	43307.000000	74782.000000	1339.000000	-7770.000000	-2411.000000	16.000000	-25.000000	11.000000	-46.000000	-320.000000	-63.000000	0.419922	0.566406	0.375977	0.097656	1.000000	1.000000	0.000000	0.000000
8/25/2022	3:57:09 PM	98517.000000	154129.000000	32897.000000	53018.000000	28759.000000	54823.000000	43206.000000	73936.000000	1252.000000	-7751.000000	-2422.000000	42.000000	62.000000	19.000000	-50.000000	-321.000000	-65.000000	0.434570	0.576172	0.361328	0.092773	1.000000	1.000000	0.000000	0.000000
8/25/2022	3:57:09 PM	99043.000000	154773.000000	32722.000000	53069.000000	28589.000000	55342.000000	44256.000000	73789.000000	1165.000000	-7747.000000	-2436.000000	34.000000	40.000000	5.000000	-56.000000	-309.000000	-63.000000	0.415039	0.576172	0.380859	0.083008	1.000000	1.000000	0.000000	0.000000
8/25/2022	3:57:09 PM	99398.000000	154773.000000	32819.000000	53044.000000	29121.000000	56438.000000	44273.000000	74984.000000	1184.000000	-7718.000000	-2417.000000	64.000000	1.000000	-17.000000	-51.000000	-311.000000	-60.000000	0.439453	0.581055	0.390625	0.083008	1.000000	1.000000	0.000000	0.000000
8/25/2022	3:57:09 PM	98779.000000	154989.000000	32351.000000	53272.000000	28811.000000	55480.000000	44936.000000	73936.000000	1129.000000	-7784.000000	-2370.000000	-3.000000	27.000000	27.000000	-42.000000	-316.000000	-53.000000	0.478516	0.605469	0.434570	0.107422	1.000000	1.000000	0.000000	0.000000
8/25/2022	3:57:09 PM	97651.000000	154558.000000	32780.000000	53044.000000	28999.000000	56210.000000	45996.000000	75035.000000	1243.000000	-7761.000000	-2408.000000	50.000000	-18.000000	-13.000000	-41.000000	-320.000000	-62.000000	0.361328	0.585937	0.429687	0.107422	1.000000	1.000000	0.000000	0.000000
8/25/2022	3:57:09 PM	97139.000000	154989.000000	32493.000000	52867.000000	29045.000000	55927.000000	46419.000000	74382.000000	1207.000000	-7627.000000	-2395.000000	53.000000	27.000000	-9.000000	-42.000000	-328.000000	-70.000000	0.424805	0.551758	0.473633	0.102539	1.000000	1.000000	0.000000	0.000000
8/25/2022	3:57:09 PM	97224.000000	154558.000000	32848.000000	53196.000000	29390.000000	55983.000000	46072.000000	74732.000000	1197.000000	-7719.000000	-2405.000000	20.000000	32.000000	-3.000000	-42.000000	-317.000000	-63.000000	0.385742	0.590820	0.444336	0.083008	1.000000	1.000000	0.000000	0.000000
8/25/2022	3:57:09 PM	97224.000000	154773.000000	32790.000000	52993.000000	29106.000000	55452.000000	46360.000000	74382.000000	1213.000000	-7726.000000	-2449.000000	19.000000	25.000000	-5.000000	-44.000000	-309.000000	-62.000000	0.361328	0.605469	0.424805	0.078125	1.000000	1.000000	0.000000	0.000000
8/25/2022	3:57:10 PM	95964.000000	155422.000000	32809.000000	52842.000000	28992.000000	55927.000000	47087.000000	73887.000000	1180.000000	-7771.000000	-2475.000000	23.000000	30.000000	4.000000	-42.000000	-314.000000	-66.000000	0.375977	0.590820	0.439453	0.092773	1.000000	1.000000	0.000000	0.000000
8/25/2022	3:57:10 PM	97139.000000	155858.000000	33073.000000	52942.000000	29014.000000	55814.000000	46613.000000	74233.000000	1134.000000	-7724.000000	-2413.000000	88.000000	20.000000	-13.000000	-43.000000	-314.000000	-66.000000	0.454102	0.546875	0.444336	0.087891	1.000000	1.000000	0.000000	0.000000
8/25/2022	3:57:10 PM	97054.000000	156297.000000	32761.000000	53324.000000	28789.000000	55786.000000	47087.000000	74035.000000	1202.000000	-7716.000000	-2300.000000	42.000000	-16.000000	-4.000000	-47.000000	-320.000000	-61.000000	0.410156	0.541992	0.473633	0.087891	1.000000	1.000000	0.000000	0.000000
8/25/2022	3:57:10 PM	96130.000000	155205.000000	32540.000000	53120.000000	28999.000000	55452.000000	46849.000000	74732.000000	1251.000000	-7828.000000	-2336.000000	24.000000	37.000000	-2.000000	-46.000000	-316.000000	-54.000000	0.400391	0.571289	0.454102	0.102539	1.000000	1.000000	0.000000	0.000000
8/25/2022	3:57:10 PM	95964.000000	155858.000000	32332.000000	52892.000000	29075.000000	56238.000000	46633.000000	74833.000000	1243.000000	-7702.000000	-2404.000000	-6.000000	41.000000	13.000000	-49.000000	-319.000000	-56.000000	0.346680	0.576172	0.546875	0.102539	1.000000	1.000000	0.000000	0.000000
8/25/2022	3:57:10 PM	95634.000000	155422.000000	32540.000000	53196.000000	28774.000000	55955.000000	46849.000000	74134.000000	1258.000000	-7830.000000	-2409.000000	-28.000000	40.000000	53.000000	-47.000000	-322.000000	-60.000000	0.419922	0.556641	0.541992	0.083008	1.000000	1.000000	0.000000	0.000000
8/25/2022	3:57:10 PM	95224.000000	155205.000000	32684.000000	52968.000000	29022.000000	55150.000000	46652.000000	74282.000000	1186.000000	-7625.000000	-2448.000000	121.000000	14.000000	-18.000000	-43.000000	-313.000000	-56.000000	0.419922	0.498047	0.458984	0.112305	1.000000	1.000000	0.000000	0.000000
8/25/2022	3:57:10 PM	94980.000000	155205.000000	32493.000000	52642.000000	29014.000000	55013.000000	46303.000000	74332.000000	1133.000000	-7804.000000	-2410.000000	31.000000	22.000000	-15.000000	-42.000000	-317.000000	-51.000000	0.410156	0.498047	0.419922	0.092773	1.000000	1.000000	0.000000	0.000000
8/25/2022	3:57:10 PM	94415.000000	156297.000000	32655.000000	53044.000000	28894.000000	55842.000000	46535.000000	75494.000000	1196.000000	-7726.000000	-2372.000000	71.000000	-19.000000	-15.000000	-49.000000	-320.000000	-59.000000	0.366211	0.468750	0.400391	0.083008	1.000000	1.000000	0.000000	0.000000
8/25/2022	3:57:10 PM	95143.000000	156077.000000	32220.000000	52892.000000	28962.000000	55899.000000	46711.000000	75187.000000	1289.000000	-7746.000000	-2398.000000	31.000000	34.000000	-16.000000	-50.000000	-321.000000	-60.000000	0.390625	0.488281	0.405273	0.083008	1.000000	1.000000	0.000000	0.000000
8/25/2022	3:57:10 PM	95061.000000	154989.000000	32417.000000	53196.000000	28969.000000	55675.000000	46496.000000	75238.000000	1331.000000	-7730.000000	-2350.000000	69.000000	-17.000000	-7.000000	-43.000000	-319.000000	-59.000000	0.395508	0.449219	0.400391	0.063477	1.000000	1.000000	0.000000	0.000000
8/25/2022	3:57:10 PM	96047.000000	154773.000000	32445.000000	53247.000000	29121.000000	55425.000000	46829.000000	75854.000000	1173.000000	-7760.000000	-2390.000000	24.000000	31.000000	16.000000	-51.000000	-316.000000	-69.000000	0.371094	0.449219	0.405273	0.058594	1.000000	1.000000	0.000000	0.000000
8/25/2022	3:57:10 PM	96214.000000	154129.000000	32474.000000	52892.000000	28574.000000	56352.000000	46672.000000	73206.000000	1174.000000	-7723.000000	-2380.000000	79.000000	13.000000	3.000000	-56.000000	-316.000000	-62.000000	0.336914	0.454102	0.385742	0.073242	1.000000	1.000000	0.000000	0.000000
8/25/2022	3:57:10 PM	96297.000000	154129.000000	32257.000000	53069.000000	28856.000000	56352.000000	46968.000000	75035.000000	1246.000000	-7770.000000	-2317.000000	13.000000	15.000000	9.000000	-54.000000	-314.000000	-53.000000	0.439453	0.458984	0.380859	0.073242	1.000000	1.000000	0.000000	0.000000
8/25/2022	3:57:10 PM	96214.000000	153067.000000	32266.000000	52766.000000	28969.000000	56266.000000	46790.000000	76639.000000	1177.000000	-7740.000000	-2408.000000	68.000000	17.000000	-5.000000	-51.000000	-318.000000	-55.000000	0.380859	0.410156	0.351562	0.073242	1.000000	1.000000	0.000000	0.000000
8/25/2022	3:57:10 PM	95716.000000	153915.000000	32276.000000	52766.000000	28841.000000	55814.000000	47087.000000	75906.000000	1232.000000	-7758.000000	-2341.000000	14.000000	33.000000	10.000000	-49.000000	-321.000000	-53.000000	0.458984	0.395508	0.336914	0.083008	1.000000	1.000000	0.000000	0.000000
8/25/2022	3:57:10 PM	95388.000000	153915.000000	32655.000000	52917.000000	29136.000000	55730.000000	47167.000000	75699.000000	1156.000000	-7781.000000	-2387.000000	68.000000	-6.000000	-14.000000	-43.000000	-318.000000	-56.000000	0.395508	0.385742	0.371094	0.097656	1.000000	1.000000	0.000000	0.000000
8/25/2022	3:57:10 PM	95634.000000	154343.000000	32674.000000	52917.000000	28692.000000	55314.000000	46889.000000	74183.000000	1243.000000	-7710.000000	-2393.000000	33.000000	27.000000	-1.000000	-45.000000	-314.000000	-61.000000	0.444336	0.395508	0.405273	0.102539	1.000000	1.000000	0.000000	0.000000
8/25/2022	3:57:10 PM	95061.000000	154343.000000	32182.000000	52766.000000	28744.000000	55563.000000	45844.000000	74332.000000	1297.000000	-7799.000000	-2362.000000	42.000000	2.000000	-1.000000	-47.000000	-312.000000	-55.000000	0.439453	0.410156	0.410156	0.097656	1.000000	1.000000	0.000000	0.000000
8/25/2022	3:57:10 PM	95143.000000	154129.000000	32257.000000	52270.000000	28707.000000	55013.000000	46751.000000	73254.000000	1157.000000	-7772.000000	-2342.000000	30.000000	28.000000	-1.000000	-40.000000	-311.000000	-55.000000	0.419922	0.371094	0.371094	0.063477	1.000000	1.000000	0.000000	0.000000
8/25/2022	3:57:11 PM	95470.000000	152857.000000	32071.000000	52766.000000	28737.000000	55452.000000	46419.000000	72160.000000	1204.000000	-7773.000000	-2326.000000	84.000000	-14.000000	-36.000000	-42.000000	-312.000000	-64.000000	0.395508	0.371094	0.375977	0.083008	1.000000	1.000000	0.000000	0.000000
8/25/2022	3:57:11 PM	94656.000000	153703.000000	31905.000000	52443.000000	28685.000000	55591.000000	46110.000000	72774.000000	1199.000000	-7768.000000	-2363.000000	-30.000000	52.000000	23.000000	-46.000000	-312.000000	-62.000000	0.410156	0.424805	0.405273	0.078125	1.000000	1.000000	0.000000	0.000000
8/25/2022	3:57:11 PM	95964.000000	154343.000000	31960.000000	52642.000000	28901.000000	54688.000000	46457.000000	73013.000000	1213.000000	-7762.000000	-2372.000000	61.000000	-2.000000	-14.000000	-46.000000	-312.000000	-53.000000	0.371094	0.405273	0.385742	0.083008	1.000000	1.000000	0.000000	0.000000
8/25/2022	3:57:11 PM	96130.000000	154558.000000	32127.000000	52492.000000	28523.000000	55425.000000	46245.000000	73158.000000	1230.000000	-7695.000000	-2394.000000	45.000000	24.000000	-11.000000	-45.000000	-313.000000	-46.000000	0.346680	0.356445	0.380859	0.083008	1.000000	1.000000	0.000000	0.000000
8/25/2022	3:57:11 PM	95716.000000	154558.000000	32182.000000	52691.000000	28516.000000	55397.000000	46399.000000	72870.000000	1149.000000	-7791.000000	-2375.000000	52.000000	39.000000	-11.000000	-43.000000	-319.000000	-53.000000	0.410156	0.415039	0.454102	0.131836	1.000000	1.000000	0.000000	0.000000
8/25/2022	3:57:11 PM	95143.000000	154343.000000	32089.000000	52817.000000	28348.000000	54234.000000	46516.000000	73013.000000	1221.000000	-7717.000000	-2362.000000	85.000000	-2.000000	-16.000000	-41.000000	-318.000000	-60.000000	0.458984	0.415039	0.473633	0.131836	1.000000	1.000000	0.000000	0.000000
8/25/2022	3:57:11 PM	95224.000000	154558.000000	31796.000000	53044.000000	28530.000000	53919.000000	45637.000000	72301.000000	1190.000000	-7800.000000	-2290.000000	54.000000	22.000000	-8.000000	-46.000000	-313.000000	-61.000000	0.483398	0.390625	0.380859	0.102539	1.000000	1.000000	0.000000	0.000000
8/25/2022	3:57:11 PM	96464.000000	154558.000000	31814.000000	52842.000000	28421.000000	54796.000000	45600.000000	72679.000000	1193.000000	-7729.000000	-2358.000000	11.000000	31.000000	-25.000000	-46.000000	-320.000000	-59.000000	0.498047	0.429687	0.468750	0.117187	1.000000	1.000000	0.000000	0.000000
8/25/2022	3:57:11 PM	96800.000000	154343.000000	32201.000000	53145.000000	28269.000000	54850.000000	45712.000000	74282.000000	1153.000000	-7773.000000	-2378.000000	37.000000	45.000000	-16.000000	-50.000000	-320.000000	-49.000000	0.507812	0.395508	0.375977	0.102539	1.000000	1.000000	0.000000	0.000000
8/25/2022	3:57:11 PM	96381.000000	154343.000000	31942.000000	52542.000000	28048.000000	54474.000000	45637.000000	73643.000000	1269.000000	-7747.000000	-2352.000000	69.000000	-6.000000	-33.000000	-55.000000	-312.000000	-54.000000	0.463867	0.375977	0.410156	0.083008	1.000000	1.000000	0.000000	0.000000
8/25/2022	3:57:11 PM	96047.000000	155422.000000	31814.000000	52691.000000	28190.000000	54234.000000	45581.000000	74084.000000	1209.000000	-7752.000000	-2295.000000	-2.000000	40.000000	-5.000000	-52.000000	-309.000000	-59.000000	0.419922	0.371094	0.380859	0.078125	1.000000	1.000000	0.000000	0.000000
8/25/2022	3:57:11 PM	96464.000000	155422.000000	32043.000000	52741.000000	27914.000000	54904.000000	46245.000000	73986.000000	1169.000000	-7748.000000	-2363.000000	75.000000	13.000000	-30.000000	-44.000000	-311.000000	-56.000000	0.439453	0.385742	0.385742	0.083008	1.000000	1.000000	0.000000	0.000000
8/25/2022	3:57:11 PM	95143.000000	154129.000000	32145.000000	52443.000000	27956.000000	54634.000000	46264.000000	74582.000000	1218.000000	-7741.000000	-2367.000000	24.000000	40.000000	-10.000000	-45.000000	-312.000000	-52.000000	0.366211	0.400391	0.375977	0.078125	1.000000	1.000000	0.000000	0.000000
8/25/2022	3:57:11 PM	95306.000000	154343.000000	31914.000000	52642.000000	28183.000000	54823.000000	46477.000000	74632.000000	1264.000000	-7788.000000	-2325.000000	32.000000	6.000000	-1.000000	-51.000000	-317.000000	-53.000000	0.395508	0.366211	0.336914	0.063477	1.000000	1.000000	0.000000	0.000000
8/25/2022	3:57:11 PM	95964.000000	155205.000000	31714.000000	52246.000000	28212.000000	54581.000000	46360.000000	74782.000000	1198.000000	-7762.000000	-2343.000000	20.000000	53.000000	-6.000000	-47.000000	-323.000000	-57.000000	0.424805	0.395508	0.410156	0.102539	1.000000	1.000000	0.000000	0.000000
8/25/2022	3:57:11 PM	96381.000000	155205.000000	31651.000000	52492.000000	27879.000000	55095.000000	46496.000000	74134.000000	1189.000000	-7780.000000	-2341.000000	17.000000	-6.000000	-2.000000	-49.000000	-323.000000	-59.000000	0.385742	0.400391	0.395508	0.092773	1.000000	1.000000	0.000000	0.000000
8/25/2022	3:57:11 PM	96969.000000	154989.000000	31445.000000	52443.000000	27893.000000	55232.000000	46633.000000	74532.000000	1182.000000	-7748.000000	-2357.000000	42.000000	65.000000	-15.000000	-42.000000	-316.000000	-59.000000	0.380859	0.390625	0.380859	0.087891	0.000000	0.000000	0.000000	0.000000
8/25/2022	3:57:11 PM	96716.000000	155205.000000	31942.000000	52344.000000	27998.000000	55342.000000	46419.000000	74233.000000	1262.000000	-7742.000000	-2318.000000	-23.000000	-3.000000	-1.000000	-44.000000	-310.000000	-53.000000	0.395508	0.371094	0.400391	0.092773	0.000000	0.000000	0.000000	0.000000
8/25/2022	3:57:11 PM	96548.000000	155640.000000	31969.000000	52221.000000	27928.000000	55842.000000	46245.000000	73643.000000	1234.000000	-7708.000000	-2373.000000	53.000000	37.000000	-21.000000	-52.000000	-317.000000	-54.000000	0.322266	0.351562	0.336914	0.078125	0.000000	0.000000	0.000000	0.000000
8/25/2022	3:57:11 PM	97224.000000	155858.000000	31615.000000	52196.000000	28298.000000	54986.000000	46692.000000	73110.000000	1259.000000	-7830.000000	-2382.000000	-17.000000	18.000000	8.000000	-47.000000	-314.000000	-68.000000	0.439453	0.400391	0.395508	0.102539	0.000000	0.000000	0.000000	0.000000
