Date	Time	FMG1	FMG2	FMG3	FMG4	FMG5	FMG6	FMG7	FMG8	IMU1	IMU2	IMU3	IMU4	IMU5	IMU6	IMU7	IMU8	IMU9	EMG1	EMG2	EMG3	EMG4	TTL1	TTL2	TTL3	TTL4							
8/25/2022	4:02:18 PM	115999.000000	175279.000000	41143.000000	64986.000000	34046.000000	75596.000000	51928.000000	123064.000000	1444.000000	-7292.000000	-3414.000000	34.000000	36.000000	-5.000000	-56.000000	-299.000000	-70.000000	0.122070	0.322266	0.278320	0.029297	0.000000	0.000000	0.000000	0.000000
8/25/2022	4:02:18 PM	115157.000000	176672.000000	41342.000000	64608.000000	34182.000000	76481.000000	51952.000000	122521.000000	1493.000000	-7292.000000	-3464.000000	26.000000	16.000000	-5.000000	-44.000000	-298.000000	-62.000000	0.122070	0.336914	0.292969	0.034180	0.000000	0.000000	0.000000	0.000000
8/25/2022	4:02:18 PM	114564.000000	175834.000000	41249.000000	64124.000000	34662.000000	76062.000000	51591.000000	122928.000000	1486.000000	-7274.000000	-3409.000000	49.000000	17.000000	2.000000	-54.000000	-304.000000	-62.000000	0.117187	0.336914	0.288086	0.034180	0.000000	0.000000	0.000000	0.000000
8/25/2022	4:02:18 PM	114919.000000	179237.000000	41372.000000	64646.000000	34814.000000	76218.000000	51543.000000	123200.000000	1390.000000	-7300.000000	-3378.000000	27.000000	58.000000	1.000000	-66.000000	-306.000000	-65.000000	0.112305	0.336914	0.292969	0.034180	0.000000	0.000000	0.000000	0.000000
8/25/2022	4:02:18 PM	114682.000000	177236.000000	41219.000000	64948.000000	34847.000000	76166.000000	51281.000000	123337.000000	1454.000000	-7270.000000	-3434.000000	19.000000	39.000000	-29.000000	-60.000000	-308.000000	-65.000000	0.107422	0.341797	0.292969	0.029297	0.000000	0.000000	0.000000	0.000000
8/25/2022	4:02:19 PM	114800.000000	179237.000000	41127.000000	64458.000000	35000.000000	75648.000000	51495.000000	123064.000000	1520.000000	-7278.000000	-3473.000000	39.000000	-8.000000	-16.000000	-54.000000	-308.000000	-63.000000	0.102539	0.356445	0.292969	0.034180	0.000000	0.000000	0.000000	0.000000
8/25/2022	4:02:19 PM	115157.000000	177236.000000	41280.000000	64421.000000	34879.000000	75086.000000	51567.000000	123337.000000	1538.000000	-7288.000000	-3457.000000	36.000000	19.000000	-5.000000	-56.000000	-308.000000	-62.000000	0.097656	0.366211	0.283203	0.029297	0.000000	0.000000	0.000000	0.000000
8/25/2022	4:02:19 PM	114919.000000	177519.000000	41280.000000	64533.000000	34912.000000	76010.000000	51352.000000	122657.000000	1488.000000	-7272.000000	-3346.000000	46.000000	43.000000	12.000000	-59.000000	-309.000000	-63.000000	0.102539	0.346680	0.283203	0.034180	0.000000	0.000000	0.000000	0.000000
8/25/2022	4:02:19 PM	115637.000000	179527.000000	41234.000000	64797.000000	34934.000000	75906.000000	51567.000000	124026.000000	1461.000000	-7306.000000	-3404.000000	15.000000	36.000000	2.000000	-60.000000	-309.000000	-64.000000	0.102539	0.356445	0.292969	0.034180	0.000000	0.000000	0.000000	0.000000
8/25/2022	4:02:19 PM	116120.000000	178374.000000	41036.000000	64533.000000	34814.000000	75545.000000	51281.000000	123474.000000	1426.000000	-7286.000000	-3440.000000	27.000000	16.000000	-2.000000	-55.000000	-311.000000	-69.000000	0.107422	0.371094	0.292969	0.034180	0.000000	0.000000	0.000000	0.000000
8/25/2022	4:02:19 PM	115637.000000	178374.000000	41097.000000	65215.000000	34608.000000	75854.000000	51376.000000	124164.000000	1493.000000	-7283.000000	-3484.000000	49.000000	0.000000	-6.000000	-47.000000	-309.000000	-70.000000	0.107422	0.346680	0.292969	0.034180	0.000000	0.000000	0.000000	0.000000
8/25/2022	4:02:19 PM	115516.000000	177519.000000	40661.000000	65100.000000	34759.000000	75803.000000	51495.000000	124303.000000	1489.000000	-7271.000000	-3442.000000	27.000000	92.000000	-5.000000	-50.000000	-309.000000	-69.000000	0.112305	0.341797	0.283203	0.029297	0.000000	0.000000	0.000000	0.000000
8/25/2022	4:02:19 PM	115757.000000	176392.000000	41021.000000	64458.000000	34694.000000	76428.000000	51234.000000	124303.000000	1467.000000	-7296.000000	-3407.000000	40.000000	2.000000	2.000000	-54.000000	-312.000000	-70.000000	0.112305	0.356445	0.288086	0.029297	0.000000	0.000000	0.000000	0.000000
8/25/2022	4:02:19 PM	115637.000000	177236.000000	41036.000000	65139.000000	34554.000000	76114.000000	51093.000000	123612.000000	1462.000000	-7291.000000	-3414.000000	22.000000	5.000000	-3.000000	-45.000000	-309.000000	-70.000000	0.107422	0.356445	0.288086	0.034180	0.000000	0.000000	0.000000	0.000000
8/25/2022	4:02:19 PM	115757.000000	177519.000000	40991.000000	65561.000000	34868.000000	76218.000000	51163.000000	122521.000000	1438.000000	-7291.000000	-3471.000000	42.000000	43.000000	-30.000000	-46.000000	-308.000000	-73.000000	0.102539	0.361328	0.288086	0.029297	0.000000	0.000000	0.000000	0.000000
8/25/2022	4:02:19 PM	115757.000000	177236.000000	41051.000000	64496.000000	34629.000000	76904.000000	51305.000000	123200.000000	1463.000000	-7282.000000	-3411.000000	50.000000	39.000000	-25.000000	-54.000000	-308.000000	-79.000000	0.112305	0.380859	0.292969	0.034180	0.000000	0.000000	0.000000	0.000000
8/25/2022	4:02:19 PM	115277.000000	176672.000000	40825.000000	64684.000000	35166.000000	77118.000000	51687.000000	124026.000000	1553.000000	-7289.000000	-3391.000000	45.000000	-20.000000	-45.000000	-53.000000	-306.000000	-77.000000	0.107422	0.385742	0.292969	0.029297	0.000000	0.000000	0.000000	0.000000
8/25/2022	4:02:19 PM	115277.000000	177803.000000	40840.000000	64872.000000	34727.000000	76010.000000	51400.000000	124303.000000	1530.000000	-7272.000000	-3377.000000	30.000000	22.000000	-11.000000	-44.000000	-305.000000	-76.000000	0.107422	0.390625	0.283203	0.029297	0.000000	0.000000	0.000000	0.000000
8/25/2022	4:02:19 PM	114919.000000	177236.000000	41158.000000	65215.000000	34651.000000	75187.000000	51447.000000	123474.000000	1527.000000	-7278.000000	-3441.000000	21.000000	55.000000	-2.000000	-44.000000	-303.000000	-77.000000	0.117187	0.371094	0.283203	0.029297	0.000000	0.000000	0.000000	0.000000
8/25/2022	4:02:19 PM	115637.000000	176392.000000	41112.000000	64986.000000	34716.000000	75340.000000	51305.000000	125284.000000	1505.000000	-7266.000000	-3434.000000	21.000000	41.000000	-2.000000	-47.000000	-303.000000	-74.000000	0.112305	0.375977	0.292969	0.029297	0.000000	0.000000	0.000000	0.000000
8/25/2022	4:02:19 PM	115396.000000	176672.000000	40945.000000	64986.000000	34500.000000	74934.000000	51140.000000	126424.000000	1512.000000	-7273.000000	-3408.000000	29.000000	7.000000	4.000000	-54.000000	-308.000000	-70.000000	0.112305	0.371094	0.288086	0.029297	0.000000	0.000000	0.000000	0.000000
8/25/2022	4:02:19 PM	116363.000000	176954.000000	41158.000000	64986.000000	34351.000000	74382.000000	51234.000000	125994.000000	1472.000000	-7281.000000	-3416.000000	19.000000	19.000000	-1.000000	-57.000000	-314.000000	-72.000000	0.117187	0.380859	0.292969	0.034180	0.000000	0.000000	0.000000	0.000000
8/25/2022	4:02:19 PM	115637.000000	177519.000000	41051.000000	64721.000000	34340.000000	74183.000000	51400.000000	125002.000000	1472.000000	-7281.000000	-3440.000000	40.000000	35.000000	-8.000000	-44.000000	-308.000000	-72.000000	0.122070	0.385742	0.292969	0.034180	0.000000	0.000000	0.000000	0.000000
8/25/2022	4:02:19 PM	115516.000000	176954.000000	41465.000000	64684.000000	34046.000000	73887.000000	51140.000000	127439.000000	1504.000000	-7290.000000	-3405.000000	42.000000	39.000000	-21.000000	-43.000000	-307.000000	-75.000000	0.126953	0.395508	0.288086	0.034180	0.000000	0.000000	0.000000	0.000000
8/25/2022	4:02:19 PM	114682.000000	176672.000000	40930.000000	64309.000000	34565.000000	74883.000000	50975.000000	124582.000000	1533.000000	-7265.000000	-3377.000000	5.000000	3.000000	-8.000000	-51.000000	-303.000000	-82.000000	0.122070	0.410156	0.292969	0.034180	0.000000	0.000000	0.000000	0.000000
8/25/2022	4:02:19 PM	115757.000000	176112.000000	41143.000000	64161.000000	34629.000000	76166.000000	50650.000000	125425.000000	1508.000000	-7249.000000	-3409.000000	3.000000	15.000000	-16.000000	-51.000000	-297.000000	-81.000000	0.126953	0.390625	0.283203	0.039062	0.000000	0.000000	0.000000	0.000000
8/25/2022	4:02:19 PM	114800.000000	176112.000000	41158.000000	64571.000000	34662.000000	75958.000000	50581.000000	125143.000000	1582.000000	-7276.000000	-3503.000000	-18.000000	40.000000	-11.000000	-46.000000	-304.000000	-73.000000	0.112305	0.395508	0.292969	0.029297	0.000000	0.000000	0.000000	0.000000
8/25/2022	4:02:19 PM	114800.000000	176672.000000	41372.000000	64608.000000	34171.000000	76062.000000	50789.000000	125567.000000	1477.000000	-7264.000000	-3489.000000	22.000000	68.000000	4.000000	-47.000000	-309.000000	-75.000000	0.112305	0.415039	0.288086	0.034180	0.000000	0.000000	0.000000	0.000000
8/25/2022	4:02:19 PM	113511.000000	176112.000000	41357.000000	64161.000000	34256.000000	76481.000000	50627.000000	125143.000000	1495.000000	-7270.000000	-3337.000000	26.000000	13.000000	-9.000000	-46.000000	-312.000000	-80.000000	0.107422	0.400391	0.288086	0.034180	0.000000	0.000000	0.000000	0.000000
8/25/2022	4:02:19 PM	114800.000000	176672.000000	41511.000000	64235.000000	34287.000000	76533.000000	50835.000000	124442.000000	1563.000000	-7289.000000	-3173.000000	-40.000000	-48.000000	-32.000000	-46.000000	-309.000000	-83.000000	0.126953	0.405273	0.288086	0.034180	0.000000	0.000000	0.000000	0.000000
8/25/2022	4:02:19 PM	113627.000000	178088.000000	41265.000000	64797.000000	34394.000000	76851.000000	51257.000000	124582.000000	1424.000000	-7266.000000	-2748.000000	-188.000000	-61.000000	20.000000	-55.000000	-307.000000	-81.000000	0.131836	0.400391	0.292969	0.039062	0.000000	0.000000	0.000000	0.000000
8/25/2022	4:02:19 PM	114328.000000	177803.000000	41280.000000	63501.000000	34214.000000	76957.000000	51116.000000	125002.000000	1454.000000	-7257.000000	-2960.000000	-477.000000	22.000000	-19.000000	-53.000000	-304.000000	-72.000000	0.122070	0.390625	0.292969	0.039062	0.000000	0.000000	0.000000	0.000000
8/25/2022	4:02:19 PM	113627.000000	183076.000000	41542.000000	64496.000000	34586.000000	76114.000000	50975.000000	124303.000000	1560.000000	-7135.000000	-3581.000000	-586.000000	17.000000	-14.000000	-50.000000	-308.000000	-72.000000	0.122070	0.405273	0.292969	0.034180	0.000000	0.000000	0.000000	0.000000
8/25/2022	4:02:19 PM	113743.000000	183076.000000	41265.000000	64948.000000	34330.000000	77279.000000	51116.000000	124442.000000	1559.000000	-7030.000000	-3841.000000	-598.000000	49.000000	26.000000	-51.000000	-313.000000	-72.000000	0.146484	0.390625	0.283203	0.039062	0.000000	0.000000	0.000000	0.000000
8/25/2022	4:02:19 PM	113511.000000	181580.000000	41403.000000	63573.000000	34608.000000	75494.000000	50812.000000	125425.000000	1367.000000	-6992.000000	-4056.000000	-663.000000	116.000000	-47.000000	-50.000000	-308.000000	-66.000000	0.131836	0.375977	0.292969	0.034180	0.000000	0.000000	0.000000	0.000000
8/25/2022	4:02:19 PM	113627.000000	180989.000000	41234.000000	63646.000000	34394.000000	75906.000000	51046.000000	127002.000000	1634.000000	-6793.000000	-4150.000000	-512.000000	-149.000000	-49.000000	-47.000000	-308.000000	-64.000000	0.141602	0.366211	0.292969	0.034180	0.000000	0.000000	0.000000	0.000000
8/25/2022	4:02:19 PM	114328.000000	183378.000000	41021.000000	63284.000000	34171.000000	76481.000000	50375.000000	124862.000000	1714.000000	-6693.000000	-4437.000000	-561.000000	-119.000000	-59.000000	-50.000000	-310.000000	-64.000000	0.136719	0.371094	0.292969	0.039062	0.000000	0.000000	0.000000	0.000000
8/25/2022	4:02:19 PM	113859.000000	181877.000000	40810.000000	64050.000000	33695.000000	75442.000000	50443.000000	125994.000000	1590.000000	-6713.000000	-4630.000000	-433.000000	-90.000000	7.000000	-51.000000	-313.000000	-65.000000	0.126953	0.366211	0.292969	0.034180	0.000000	0.000000	0.000000	0.000000
8/25/2022	4:02:19 PM	113627.000000	180109.000000	41051.000000	63829.000000	34150.000000	74833.000000	50443.000000	124721.000000	1568.000000	-6587.000000	-4604.000000	-426.000000	33.000000	11.000000	-44.000000	-318.000000	-66.000000	0.126953	0.375977	0.292969	0.039062	0.000000	0.000000	0.000000	0.000000
8/25/2022	4:02:19 PM	112819.000000	176954.000000	41234.000000	63140.000000	34351.000000	74582.000000	50673.000000	122521.000000	1346.000000	-6575.000000	-4553.000000	-353.000000	58.000000	44.000000	-38.000000	-323.000000	-72.000000	0.117187	0.371094	0.292969	0.034180	0.000000	0.000000	0.000000	0.000000
8/25/2022	4:02:19 PM	113743.000000	178088.000000	41097.000000	63719.000000	34500.000000	73887.000000	50443.000000	124721.000000	1649.000000	-6521.000000	-4838.000000	-391.000000	-56.000000	-33.000000	-41.000000	-323.000000	-70.000000	0.112305	0.375977	0.292969	0.034180	0.000000	0.000000	0.000000	0.000000
8/25/2022	4:02:19 PM	115396.000000	179237.000000	40855.000000	63501.000000	34394.000000	75648.000000	50489.000000	124303.000000	1281.000000	-6526.000000	-4756.000000	-310.000000	-15.000000	28.000000	-38.000000	-323.000000	-60.000000	0.117187	0.395508	0.292969	0.034180	0.000000	0.000000	0.000000	0.000000
8/25/2022	4:02:19 PM	114800.000000	178661.000000	40616.000000	63537.000000	34468.000000	74382.000000	50329.000000	123337.000000	1501.000000	-6510.000000	-4794.000000	-339.000000	-108.000000	-26.000000	-40.000000	-323.000000	-63.000000	0.112305	0.405273	0.288086	0.029297	0.000000	0.000000	0.000000	0.000000
8/25/2022	4:02:19 PM	114446.000000	178948.000000	40840.000000	63033.000000	34415.000000	74332.000000	50489.000000	123474.000000	1364.000000	-6323.000000	-4677.000000	-358.000000	22.000000	21.000000	-44.000000	-321.000000	-63.000000	0.117187	0.395508	0.292969	0.034180	0.000000	0.000000	0.000000	0.000000
8/25/2022	4:02:19 PM	114446.000000	178374.000000	41051.000000	63573.000000	34705.000000	74382.000000	50125.000000	123749.000000	1326.000000	-6374.000000	-4892.000000	-450.000000	-93.000000	-70.000000	-37.000000	-322.000000	-61.000000	0.122070	0.415039	0.292969	0.034180	0.000000	0.000000	0.000000	0.000000
8/25/2022	4:02:19 PM	114093.000000	176672.000000	40750.000000	63610.000000	34533.000000	74682.000000	50079.000000	123887.000000	1531.000000	-6208.000000	-5046.000000	-403.000000	-210.000000	-27.000000	-37.000000	-322.000000	-61.000000	0.112305	0.419922	0.292969	0.039062	0.000000	0.000000	0.000000	0.000000
8/25/2022	4:02:19 PM	113743.000000	176954.000000	40542.000000	63792.000000	34436.000000	74582.000000	50375.000000	124164.000000	1537.000000	-6131.000000	-5230.000000	-439.000000	-72.000000	11.000000	-43.000000	-322.000000	-62.000000	0.107422	0.419922	0.292969	0.034180	0.000000	0.000000	0.000000	0.000000
8/25/2022	4:02:19 PM	113049.000000	175279.000000	40572.000000	64050.000000	34847.000000	73789.000000	50170.000000	122117.000000	1407.000000	-6064.000000	-5408.000000	-396.000000	26.000000	17.000000	-42.000000	-323.000000	-57.000000	0.107422	0.415039	0.297852	0.034180	0.000000	0.000000	0.000000	0.000000
8/25/2022	4:02:19 PM	113395.000000	176954.000000	40498.000000	64533.000000	34727.000000	73351.000000	50170.000000	122521.000000	1432.000000	-5969.000000	-5721.000000	-278.000000	-62.000000	12.000000	-38.000000	-327.000000	-56.000000	0.122070	0.444336	0.292969	0.034180	0.000000	0.000000	0.000000	0.000000
8/25/2022	4:02:19 PM	112590.000000	176672.000000	40691.000000	64087.000000	35011.000000	72254.000000	49632.000000	121318.000000	1432.000000	-5887.000000	-6012.000000	-87.000000	28.000000	-31.000000	-42.000000	-329.000000	-56.000000	0.122070	0.419922	0.283203	0.034180	0.000000	0.000000	0.000000	0.000000
8/25/2022	4:02:19 PM	113859.000000	177803.000000	40527.000000	64421.000000	34479.000000	72442.000000	50034.000000	122657.000000	1297.000000	-5848.000000	-6292.000000	122.000000	67.000000	1.000000	-41.000000	-329.000000	-55.000000	0.112305	0.410156	0.292969	0.034180	0.000000	0.000000	0.000000	0.000000
8/25/2022	4:02:19 PM	114210.000000	174180.000000	40527.000000	64608.000000	34309.000000	71372.000000	49832.000000	122521.000000	1427.000000	-5925.000000	-6338.000000	503.000000	10.000000	-61.000000	-37.000000	-330.000000	-50.000000	0.107422	0.405273	0.292969	0.034180	0.000000	0.000000	0.000000	0.000000
8/25/2022	4:02:19 PM	113511.000000	174728.000000	40587.000000	64646.000000	33859.000000	70378.000000	49788.000000	122521.000000	1590.000000	-5971.000000	-5946.000000	854.000000	79.000000	13.000000	-37.000000	-328.000000	-46.000000	0.122070	0.405273	0.292969	0.029297	0.000000	0.000000	0.000000	0.000000
8/25/2022	4:02:19 PM	113511.000000	174180.000000	40365.000000	65600.000000	33849.000000	70691.000000	49610.000000	123474.000000	1582.000000	-6149.000000	-5704.000000	1020.000000	213.000000	76.000000	-42.000000	-328.000000	-54.000000	0.131836	0.410156	0.292969	0.034180	0.000000	0.000000	0.000000	0.000000
8/25/2022	4:02:19 PM	113395.000000	174454.000000	40365.000000	65024.000000	33482.000000	71464.000000	49411.000000	122521.000000	1628.000000	-6274.000000	-5143.000000	1313.000000	86.000000	119.000000	-43.000000	-323.000000	-56.000000	0.131836	0.390625	0.292969	0.034180	0.000000	0.000000	0.000000	0.000000
8/25/2022	4:02:19 PM	114919.000000	175834.000000	40292.000000	64458.000000	33932.000000	71144.000000	49280.000000	123200.000000	1570.000000	-6353.000000	-4640.000000	1321.000000	213.000000	204.000000	-42.000000	-319.000000	-61.000000	0.131836	0.390625	0.292969	0.034180	0.000000	0.000000	0.000000	0.000000
8/25/2022	4:02:19 PM	114210.000000	176954.000000	40705.000000	64608.000000	33828.000000	71741.000000	49721.000000	121716.000000	1409.000000	-6811.000000	-4177.000000	1217.000000	249.000000	271.000000	-46.000000	-317.000000	-69.000000	0.146484	0.405273	0.292969	0.034180	0.000000	0.000000	0.000000	0.000000
8/25/2022	4:02:19 PM	113743.000000	175556.000000	40424.000000	64458.000000	33839.000000	72490.000000	49765.000000	120528.000000	1627.000000	-6887.000000	-4013.000000	1327.000000	10.000000	197.000000	-45.000000	-312.000000	-70.000000	0.141602	0.385742	0.292969	0.034180	0.000000	0.000000	0.000000	0.000000
8/25/2022	4:02:19 PM	114446.000000	180989.000000	40691.000000	63829.000000	34330.000000	72870.000000	49877.000000	122928.000000	1352.000000	-7086.000000	-3133.000000	1309.000000	49.000000	277.000000	-48.000000	-314.000000	-73.000000	0.161133	0.375977	0.283203	0.039062	0.000000	0.000000	0.000000	0.000000
8/25/2022	4:02:19 PM	113511.000000	179527.000000	40587.000000	64608.000000	34161.000000	72537.000000	49433.000000	122792.000000	1213.000000	-7332.000000	-2592.000000	883.000000	166.000000	185.000000	-51.000000	-313.000000	-79.000000	0.156250	0.380859	0.292969	0.039062	0.000000	0.000000	0.000000	0.000000
8/25/2022	4:02:19 PM	113859.000000	182775.000000	40900.000000	64496.000000	34150.000000	71973.000000	49922.000000	122657.000000	1321.000000	-7498.000000	-2415.000000	848.000000	-102.000000	219.000000	-45.000000	-310.000000	-81.000000	0.161133	0.385742	0.292969	0.034180	0.000000	0.000000	0.000000	0.000000
8/25/2022	4:02:19 PM	112934.000000	180989.000000	40705.000000	65369.000000	34426.000000	72679.000000	48506.000000	121185.000000	1727.000000	-7519.000000	-2330.000000	535.000000	-47.000000	388.000000	-45.000000	-313.000000	-76.000000	0.156250	0.361328	0.283203	0.039062	0.000000	0.000000	0.000000	0.000000
8/25/2022	4:02:19 PM	113049.000000	176392.000000	40691.000000	64533.000000	34330.000000	73545.000000	49062.000000	120790.000000	1604.000000	-7600.000000	-1959.000000	159.000000	93.000000	557.000000	-44.000000	-315.000000	-78.000000	0.180664	0.371094	0.292969	0.039062	0.000000	0.000000	0.000000	0.000000
8/25/2022	4:02:19 PM	112136.000000	184290.000000	40720.000000	65024.000000	34651.000000	74883.000000	49654.000000	120267.000000	1468.000000	-7603.000000	-1852.000000	-154.000000	202.000000	724.000000	-38.000000	-321.000000	-76.000000	0.166016	0.361328	0.292969	0.034180	0.000000	0.000000	0.000000	0.000000
8/25/2022	4:02:19 PM	111573.000000	183681.000000	40631.000000	64721.000000	34394.000000	74382.000000	49632.000000	115999.000000	1180.000000	-7556.000000	-2358.000000	-485.000000	291.000000	831.000000	-43.000000	-321.000000	-73.000000	0.161133	0.346680	0.292969	0.039062	0.000000	0.000000	0.000000	0.000000
8/25/2022	4:02:19 PM	111461.000000	183076.000000	40991.000000	65024.000000	34554.000000	73789.000000	49699.000000	118979.000000	629.000000	-7301.000000	-2974.000000	-611.000000	433.000000	995.000000	-45.000000	-329.000000	-72.000000	0.141602	0.332031	0.283203	0.039062	0.000000	0.000000	0.000000	0.000000
8/25/2022	4:02:19 PM	112249.000000	181580.000000	40870.000000	65024.000000	34738.000000	73887.000000	49411.000000	118346.000000	-12.000000	-7366.000000	-3959.000000	-751.000000	482.000000	918.000000	-40.000000	-336.000000	-61.000000	0.151367	0.375977	0.288086	0.034180	0.000000	0.000000	0.000000	0.000000
8/25/2022	4:02:19 PM	111127.000000	179527.000000	40661.000000	65024.000000	34586.000000	74134.000000	49699.000000	119491.000000	-681.000000	-7357.000000	-4348.000000	-397.000000	335.000000	673.000000	-40.000000	-341.000000	-52.000000	0.141602	0.371094	0.292969	0.034180	0.000000	0.000000	0.000000	0.000000
8/25/2022	4:02:19 PM	110464.000000	180109.000000	40705.000000	65292.000000	35022.000000	72870.000000	49566.000000	119235.000000	-801.000000	-7296.000000	-4752.000000	-102.000000	85.000000	308.000000	-35.000000	-353.000000	-50.000000	0.131836	0.375977	0.292969	0.034180	0.000000	0.000000	0.000000	0.000000
8/25/2022	4:02:19 PM	109592.000000	175834.000000	40961.000000	64835.000000	35000.000000	73351.000000	49433.000000	120007.000000	-1083.000000	-7441.000000	-4374.000000	274.000000	-111.000000	-39.000000	-27.000000	-357.000000	-49.000000	0.126953	0.375977	0.292969	0.034180	0.000000	0.000000	0.000000	0.000000
8/25/2022	4:02:19 PM	111461.000000	176954.000000	40720.000000	65292.000000	34161.000000	73448.000000	49566.000000	118979.000000	-1014.000000	-7428.000000	-3622.000000	457.000000	-69.000000	-493.000000	-27.000000	-360.000000	-53.000000	0.126953	0.380859	0.288086	0.034180	0.000000	0.000000	0.000000	0.000000
8/25/2022	4:02:19 PM	110794.000000	179527.000000	40765.000000	64948.000000	34298.000000	73351.000000	49477.000000	119363.000000	-527.000000	-7461.000000	-3147.000000	501.000000	-98.000000	-870.000000	-30.000000	-356.000000	-56.000000	0.126953	0.385742	0.288086	0.034180	0.000000	0.000000	0.000000	0.000000
8/25/2022	4:02:19 PM	111685.000000	178088.000000	40750.000000	64910.000000	34673.000000	73740.000000	49743.000000	119878.000000	273.000000	-7531.000000	-2764.000000	392.000000	-223.000000	-1084.000000	-35.000000	-341.000000	-62.000000	0.126953	0.390625	0.292969	0.039062	0.000000	0.000000	0.000000	0.000000
8/25/2022	4:02:19 PM	111461.000000	181580.000000	40795.000000	65445.000000	34193.000000	73594.000000	49632.000000	118094.000000	674.000000	-7328.000000	-2666.000000	172.000000	-215.000000	-1028.000000	-40.000000	-333.000000	-64.000000	0.136719	0.390625	0.292969	0.039062	0.000000	0.000000	0.000000	0.000000
8/25/2022	4:02:19 PM	112363.000000	182775.000000	40810.000000	66305.000000	34404.000000	74233.000000	49521.000000	117969.000000	1291.000000	-7371.000000	-2860.000000	-44.000000	-242.000000	-1045.000000	-41.000000	-332.000000	-65.000000	0.131836	0.405273	0.292969	0.034180	0.000000	0.000000	0.000000	0.000000
8/25/2022	4:02:19 PM	112477.000000	183985.000000	40601.000000	65253.000000	34035.000000	73643.000000	49433.000000	119235.000000	1534.000000	-7317.000000	-2845.000000	-218.000000	-230.000000	-812.000000	-45.000000	-325.000000	-74.000000	0.126953	0.405273	0.283203	0.034180	0.000000	0.000000	0.000000	0.000000
8/25/2022	4:02:19 PM	111016.000000	181284.000000	40616.000000	65369.000000	34161.000000	73496.000000	49544.000000	117470.000000	1360.000000	-7325.000000	-2908.000000	-465.000000	105.000000	-696.000000	-46.000000	-318.000000	-79.000000	0.112305	0.390625	0.283203	0.029297	0.000000	0.000000	0.000000	0.000000
8/25/2022	4:02:19 PM	111238.000000	182475.000000	40780.000000	65678.000000	33942.000000	73351.000000	49499.000000	118094.000000	1487.000000	-7258.000000	-2923.000000	-615.000000	12.000000	-683.000000	-50.000000	-314.000000	-78.000000	0.117187	0.400391	0.288086	0.034180	0.000000	0.000000	0.000000	0.000000
8/25/2022	4:02:20 PM	110794.000000	182775.000000	40646.000000	65950.000000	34235.000000	73448.000000	49544.000000	119107.000000	1656.000000	-7010.000000	-3380.000000	-799.000000	42.000000	-678.000000	-43.000000	-309.000000	-74.000000	0.107422	0.405273	0.283203	0.034180	0.000000	0.000000	0.000000	0.000000
8/25/2022	4:02:20 PM	112363.000000	179527.000000	40616.000000	65561.000000	33756.000000	73254.000000	49193.000000	117844.000000	2442.000000	-6916.000000	-3919.000000	-796.000000	-306.000000	-550.000000	-36.000000	-302.000000	-71.000000	0.131836	0.424805	0.292969	0.034180	0.000000	0.000000	0.000000	0.000000
8/25/2022	4:02:20 PM	112934.000000	181284.000000	40454.000000	65950.000000	34004.000000	73158.000000	49258.000000	117844.000000	2292.000000	-6638.000000	-4019.000000	-749.000000	-145.000000	-258.000000	-47.000000	-304.000000	-74.000000	0.141602	0.385742	0.278320	0.034180	0.000000	0.000000	0.000000	0.000000
8/25/2022	4:02:20 PM	112590.000000	178661.000000	40321.000000	65950.000000	34056.000000	73254.000000	48954.000000	116730.000000	2497.000000	-6572.000000	-4737.000000	-880.000000	-17.000000	-99.000000	-56.000000	-306.000000	-75.000000	0.141602	0.385742	0.292969	0.029297	0.000000	0.000000	0.000000	0.000000
8/25/2022	4:02:20 PM	113511.000000	179237.000000	40234.000000	65177.000000	33911.000000	72490.000000	49324.000000	118220.000000	1885.000000	-6311.000000	-5302.000000	-417.000000	-81.000000	119.000000	-56.000000	-307.000000	-72.000000	0.131836	0.385742	0.288086	0.034180	0.000000	0.000000	0.000000	0.000000
8/25/2022	4:02:20 PM	114328.000000	179237.000000	39902.000000	65561.000000	34130.000000	72822.000000	49455.000000	118094.000000	2218.000000	-6424.000000	-6302.000000	-316.000000	-50.000000	114.000000	-52.000000	-312.000000	-73.000000	0.126953	0.375977	0.288086	0.034180	0.000000	0.000000	0.000000	0.000000
8/25/2022	4:02:20 PM	113859.000000	178661.000000	39973.000000	65561.000000	33431.000000	72490.000000	49280.000000	115396.000000	1406.000000	-6365.000000	-5948.000000	616.000000	-54.000000	211.000000	-47.000000	-313.000000	-72.000000	0.112305	0.385742	0.292969	0.029297	0.000000	0.000000	0.000000	0.000000
8/25/2022	4:02:20 PM	111910.000000	177803.000000	40031.000000	66068.000000	33421.000000	72348.000000	49149.000000	118346.000000	1420.000000	-6613.000000	-5093.000000	749.000000	239.000000	133.000000	-42.000000	-307.000000	-71.000000	0.122070	0.434570	0.292969	0.024414	0.000000	0.000000	0.000000	0.000000
8/25/2022	4:02:20 PM	113395.000000	182775.000000	40045.000000	65872.000000	33371.000000	70781.000000	48868.000000	118725.000000	1267.000000	-6714.000000	-4756.000000	999.000000	182.000000	-49.000000	-40.000000	-307.000000	-72.000000	0.136719	0.410156	0.288086	0.034180	0.000000	0.000000	0.000000	0.000000
8/25/2022	4:02:20 PM	112590.000000	180989.000000	39787.000000	65639.000000	33715.000000	72113.000000	48825.000000	117470.000000	1627.000000	-6829.000000	-3914.000000	1310.000000	-109.000000	-198.000000	-38.000000	-312.000000	-70.000000	0.175781	0.424805	0.283203	0.034180	0.000000	0.000000	0.000000	0.000000
8/25/2022	4:02:20 PM	112477.000000	180401.000000	39844.000000	66068.000000	33532.000000	72254.000000	48890.000000	119107.000000	1870.000000	-6979.000000	-3438.000000	1172.000000	-41.000000	-78.000000	-52.000000	-303.000000	-69.000000	0.161133	0.434570	0.292969	0.034180	0.000000	0.000000	0.000000	0.000000
8/25/2022	4:02:20 PM	112023.000000	180401.000000	39988.000000	66029.000000	33685.000000	72020.000000	48911.000000	119749.000000	1871.000000	-7134.000000	-3060.000000	1125.000000	67.000000	-54.000000	-64.000000	-295.000000	-74.000000	0.151367	0.434570	0.292969	0.039062	0.000000	0.000000	0.000000	0.000000
8/25/2022	4:02:20 PM	111910.000000	178948.000000	39945.000000	65833.000000	33073.000000	72348.000000	48933.000000	119363.000000	2025.000000	-7238.000000	-2659.000000	998.000000	89.000000	-9.000000	-55.000000	-293.000000	-79.000000	0.131836	0.424805	0.297852	0.034180	0.000000	0.000000	0.000000	0.000000
8/25/2022	4:02:20 PM	112363.000000	180989.000000	40103.000000	65833.000000	34025.000000	72020.000000	49588.000000	119107.000000	1863.000000	-7355.000000	-2245.000000	760.000000	167.000000	98.000000	-55.000000	-298.000000	-78.000000	0.131836	0.424805	0.292969	0.029297	0.000000	0.000000	0.000000	0.000000
8/25/2022	4:02:20 PM	112023.000000	184290.000000	40147.000000	65990.000000	34140.000000	73013.000000	49944.000000	116730.000000	1746.000000	-7549.000000	-1904.000000	482.000000	82.000000	89.000000	-56.000000	-295.000000	-78.000000	0.131836	0.439453	0.292969	0.034180	0.000000	0.000000	0.000000	0.000000
8/25/2022	4:02:20 PM	111798.000000	186142.000000	39945.000000	66107.000000	34500.000000	72727.000000	50012.000000	115637.000000	1665.000000	-7612.000000	-1732.000000	163.000000	13.000000	124.000000	-46.000000	-290.000000	-86.000000	0.131836	0.434570	0.278320	0.034180	0.000000	0.000000	0.000000	0.000000
8/25/2022	4:02:20 PM	111127.000000	184596.000000	40132.000000	65139.000000	34266.000000	72774.000000	49922.000000	115999.000000	1538.000000	-7640.000000	-1591.000000	-215.000000	44.000000	102.000000	-50.000000	-298.000000	-83.000000	0.122070	0.429687	0.288086	0.034180	0.000000	0.000000	0.000000	0.000000
8/25/2022	4:02:20 PM	111685.000000	185831.000000	40424.000000	66068.000000	34015.000000	72113.000000	49788.000000	118094.000000	1599.000000	-7541.000000	-2000.000000	-595.000000	95.000000	133.000000	-53.000000	-299.000000	-82.000000	0.122070	0.444336	0.288086	0.034180	0.000000	0.000000	0.000000	0.000000
8/25/2022	4:02:20 PM	110905.000000	183378.000000	40307.000000	65330.000000	33983.000000	73110.000000	49900.000000	116485.000000	1630.000000	-7460.000000	-2491.000000	-862.000000	134.000000	111.000000	-47.000000	-296.000000	-90.000000	0.122070	0.444336	0.292969	0.039062	0.000000	0.000000	0.000000	0.000000
8/25/2022	4:02:20 PM	111238.000000	184290.000000	40147.000000	65639.000000	34025.000000	73448.000000	49832.000000	118472.000000	1871.000000	-7337.000000	-2433.000000	-970.000000	60.000000	129.000000	-50.000000	-298.000000	-91.000000	0.146484	0.434570	0.278320	0.034180	0.000000	0.000000	0.000000	0.000000
8/25/2022	4:02:20 PM	110905.000000	183378.000000	40321.000000	65523.000000	34203.000000	73545.000000	49588.000000	115757.000000	1728.000000	-7076.000000	-3081.000000	-1181.000000	236.000000	178.000000	-51.000000	-303.000000	-82.000000	0.141602	0.419922	0.297852	0.029297	0.000000	0.000000	0.000000	0.000000
8/25/2022	4:02:20 PM	112363.000000	182775.000000	40118.000000	65292.000000	33787.000000	72918.000000	49676.000000	116853.000000	1475.000000	-6890.000000	-3771.000000	-1299.000000	214.000000	280.000000	-49.000000	-311.000000	-74.000000	0.136719	0.429687	0.292969	0.029297	0.000000	0.000000	0.000000	0.000000
8/25/2022	4:02:20 PM	112249.000000	179527.000000	40060.000000	65600.000000	33828.000000	71235.000000	49499.000000	118472.000000	1131.000000	-6654.000000	-4520.000000	-1163.000000	92.000000	166.000000	-47.000000	-311.000000	-69.000000	0.136719	0.419922	0.278320	0.029297	0.000000	0.000000	0.000000	0.000000
8/25/2022	4:02:20 PM	113049.000000	176954.000000	40205.000000	65484.000000	33828.000000	70781.000000	49346.000000	114800.000000	1322.000000	-6754.000000	-4821.000000	-1110.000000	-310.000000	61.000000	-50.000000	-312.000000	-62.000000	0.126953	0.410156	0.273437	0.034180	0.000000	0.000000	0.000000	0.000000
8/25/2022	4:02:20 PM	112023.000000	177803.000000	39916.000000	65716.000000	33963.000000	70467.000000	49127.000000	120007.000000	1060.000000	-6420.000000	-5343.000000	-834.000000	-37.000000	-27.000000	-47.000000	-319.000000	-61.000000	0.122070	0.419922	0.288086	0.034180	0.000000	0.000000	0.000000	0.000000
8/25/2022	4:02:20 PM	111350.000000	178948.000000	40103.000000	65024.000000	33911.000000	71007.000000	49455.000000	122521.000000	1389.000000	-6499.000000	-5621.000000	-679.000000	-339.000000	-101.000000	-49.000000	-324.000000	-51.000000	0.126953	0.419922	0.297852	0.034180	0.000000	0.000000	0.000000	0.000000
8/25/2022	4:02:20 PM	110905.000000	178374.000000	40031.000000	65369.000000	34203.000000	69411.000000	49280.000000	120790.000000	1531.000000	-6262.000000	-5603.000000	-194.000000	-146.000000	-89.000000	-49.000000	-325.000000	-51.000000	0.117187	0.410156	0.278320	0.034180	0.000000	0.000000	0.000000	0.000000
8/25/2022	4:02:20 PM	111350.000000	174728.000000	39945.000000	65523.000000	33777.000000	70200.000000	49280.000000	119878.000000	1437.000000	-6367.000000	-5588.000000	-140.000000	-7.000000	-100.000000	-43.000000	-327.000000	-62.000000	0.112305	0.405273	0.288086	0.034180	0.000000	0.000000	0.000000	0.000000
8/25/2022	4:02:20 PM	110684.000000	175556.000000	39830.000000	65484.000000	33921.000000	70067.000000	48997.000000	119491.000000	1519.000000	-6341.000000	-5149.000000	151.000000	96.000000	-71.000000	-50.000000	-330.000000	-60.000000	0.117187	0.424805	0.292969	0.034180	0.000000	0.000000	0.000000	0.000000
8/25/2022	4:02:20 PM	110354.000000	173908.000000	39930.000000	65100.000000	33983.000000	70289.000000	48868.000000	119878.000000	1520.000000	-6406.000000	-4906.000000	169.000000	72.000000	-70.000000	-50.000000	-331.000000	-53.000000	0.126953	0.415039	0.292969	0.034180	0.000000	0.000000	0.000000	0.000000
8/25/2022	4:02:20 PM	110794.000000	177236.000000	40017.000000	65484.000000	33787.000000	70467.000000	48761.000000	120659.000000	1567.000000	-6457.000000	-4828.000000	203.000000	51.000000	-65.000000	-43.000000	-324.000000	-56.000000	0.122070	0.400391	0.273437	0.034180	0.000000	0.000000	0.000000	0.000000
8/25/2022	4:02:20 PM	110794.000000	178948.000000	39844.000000	65292.000000	33932.000000	70156.000000	48548.000000	120007.000000	1604.000000	-6467.000000	-4655.000000	244.000000	113.000000	-6.000000	-44.000000	-318.000000	-55.000000	0.122070	0.371094	0.278320	0.039062	0.000000	0.000000	0.000000	0.000000
8/25/2022	4:02:20 PM	110684.000000	177803.000000	39930.000000	65330.000000	33736.000000	69847.000000	48484.000000	120137.000000	1543.000000	-6545.000000	-4655.000000	138.000000	104.000000	42.000000	-46.000000	-314.000000	-46.000000	0.126953	0.390625	0.292969	0.039062	0.000000	0.000000	0.000000	0.000000
8/25/2022	4:02:20 PM	110027.000000	178088.000000	39930.000000	64759.000000	34067.000000	70023.000000	48890.000000	119878.000000	1499.000000	-6510.000000	-4626.000000	196.000000	15.000000	9.000000	-38.000000	-310.000000	-50.000000	0.117187	0.395508	0.283203	0.039062	0.000000	0.000000	0.000000	0.000000
8/25/2022	4:02:20 PM	110354.000000	177519.000000	39773.000000	65100.000000	33839.000000	69891.000000	48911.000000	120267.000000	1422.000000	-6563.000000	-4580.000000	163.000000	44.000000	-9.000000	-38.000000	-316.000000	-54.000000	0.112305	0.385742	0.278320	0.034180	0.000000	0.000000	0.000000	0.000000
8/25/2022	4:02:20 PM	110136.000000	178374.000000	40045.000000	65139.000000	34266.000000	70244.000000	48548.000000	120790.000000	1490.000000	-6589.000000	-4536.000000	142.000000	-8.000000	-18.000000	-50.000000	-328.000000	-52.000000	0.117187	0.405273	0.292969	0.039062	0.000000	0.000000	0.000000	0.000000
8/25/2022	4:02:20 PM	109592.000000	177519.000000	39859.000000	65445.000000	33808.000000	70023.000000	48697.000000	118599.000000	1524.000000	-6578.000000	-4357.000000	141.000000	26.000000	-13.000000	-49.000000	-321.000000	-49.000000	0.141602	0.429687	0.278320	0.034180	0.000000	0.000000	0.000000	0.000000
8/25/2022	4:02:20 PM	110794.000000	178948.000000	39702.000000	64948.000000	33391.000000	70557.000000	48675.000000	118725.000000	1583.000000	-6634.000000	-4499.000000	18.000000	45.000000	5.000000	-45.000000	-321.000000	-46.000000	0.151367	0.410156	0.283203	0.034180	1.000000	1.000000	1.000000	0.000000
8/25/2022	4:02:20 PM	109377.000000	180694.000000	39873.000000	64835.000000	33441.000000	70422.000000	48442.000000	118979.000000	1468.000000	-6569.000000	-4533.000000	62.000000	23.000000	12.000000	-46.000000	-324.000000	-47.000000	0.146484	0.380859	0.278320	0.039062	1.000000	1.000000	1.000000	0.000000
8/25/2022	4:02:20 PM	109918.000000	178661.000000	39844.000000	64721.000000	33767.000000	69935.000000	48421.000000	120528.000000	1505.000000	-6586.000000	-4675.000000	27.000000	64.000000	7.000000	-47.000000	-320.000000	-44.000000	0.136719	0.395508	0.278320	0.039062	1.000000	1.000000	1.000000	0.000000
8/25/2022	4:02:20 PM	110905.000000	179237.000000	39844.000000	64948.000000	33472.000000	69628.000000	48211.000000	118472.000000	1462.000000	-6583.000000	-4646.000000	64.000000	33.000000	-12.000000	-47.000000	-315.000000	-50.000000	0.126953	0.395508	0.297852	0.034180	1.000000	1.000000	1.000000	0.000000
8/25/2022	4:02:20 PM	110245.000000	178948.000000	39702.000000	64797.000000	33726.000000	69152.000000	48169.000000	115999.000000	1583.000000	-6626.000000	-4593.000000	96.000000	-40.000000	-5.000000	-46.000000	-320.000000	-57.000000	0.122070	0.410156	0.292969	0.039062	1.000000	1.000000	1.000000	0.000000
8/25/2022	4:02:20 PM	110794.000000	177519.000000	39759.000000	64986.000000	33654.000000	70023.000000	48086.000000	118725.000000	1519.000000	-6624.000000	-4457.000000	76.000000	25.000000	23.000000	-50.000000	-324.000000	-56.000000	0.112305	0.405273	0.288086	0.039062	1.000000	1.000000	1.000000	0.000000
8/25/2022	4:02:20 PM	109918.000000	179527.000000	39716.000000	65024.000000	33705.000000	69715.000000	47920.000000	118220.000000	1523.000000	-6599.000000	-4454.000000	33.000000	-3.000000	19.000000	-46.000000	-323.000000	-51.000000	0.126953	0.390625	0.283203	0.034180	1.000000	1.000000	1.000000	0.000000
8/25/2022	4:02:20 PM	110354.000000	178948.000000	39603.000000	65139.000000	33381.000000	69847.000000	48086.000000	118852.000000	1544.000000	-6610.000000	-4508.000000	19.000000	-10.000000	44.000000	-42.000000	-320.000000	-47.000000	0.136719	0.390625	0.288086	0.034180	1.000000	1.000000	1.000000	0.000000
8/25/2022	4:02:20 PM	110684.000000	178088.000000	39702.000000	64646.000000	33634.000000	70557.000000	47879.000000	118979.000000	1667.000000	-6621.000000	-4422.000000	-26.000000	51.000000	46.000000	-46.000000	-318.000000	-52.000000	0.122070	0.390625	0.283203	0.034180	1.000000	1.000000	1.000000	0.000000
8/25/2022	4:02:20 PM	111016.000000	177519.000000	39902.000000	64948.000000	33603.000000	70467.000000	48107.000000	119749.000000	1436.000000	-6611.000000	-4280.000000	-94.000000	50.000000	122.000000	-41.000000	-320.000000	-50.000000	0.122070	0.380859	0.283203	0.034180	1.000000	1.000000	1.000000	0.000000
8/25/2022	4:02:20 PM	111016.000000	177236.000000	39873.000000	64948.000000	33573.000000	70422.000000	48421.000000	119107.000000	1499.000000	-6563.000000	-4307.000000	-213.000000	20.000000	108.000000	-43.000000	-316.000000	-52.000000	0.126953	0.390625	0.288086	0.034180	1.000000	1.000000	1.000000	0.000000
8/25/2022	4:02:20 PM	111016.000000	178374.000000	39816.000000	64910.000000	33532.000000	69803.000000	48127.000000	117844.000000	1365.000000	-6547.000000	-5036.000000	-210.000000	40.000000	124.000000	-44.000000	-319.000000	-52.000000	0.122070	0.410156	0.288086	0.029297	1.000000	1.000000	1.000000	0.000000
8/25/2022	4:02:20 PM	111127.000000	177519.000000	39873.000000	65330.000000	33593.000000	68092.000000	48421.000000	118346.000000	1280.000000	-6470.000000	-5078.000000	-33.000000	63.000000	54.000000	-44.000000	-327.000000	-41.000000	0.131836	0.400391	0.297852	0.034180	1.000000	1.000000	1.000000	0.000000
8/25/2022	4:02:20 PM	111798.000000	174728.000000	39688.000000	65062.000000	33746.000000	68428.000000	48548.000000	117969.000000	1264.000000	-6499.000000	-5121.000000	49.000000	70.000000	-17.000000	-47.000000	-324.000000	-47.000000	0.146484	0.410156	0.297852	0.039062	1.000000	1.000000	1.000000	0.000000
8/25/2022	4:02:20 PM	111238.000000	176392.000000	39773.000000	65100.000000	33613.000000	69066.000000	48697.000000	115757.000000	1403.000000	-6520.000000	-4766.000000	200.000000	-87.000000	-41.000000	-45.000000	-316.000000	-59.000000	0.131836	0.390625	0.288086	0.039062	1.000000	1.000000	1.000000	0.000000
8/25/2022	4:02:20 PM	110684.000000	177519.000000	39830.000000	65484.000000	33492.000000	68554.000000	48400.000000	116730.000000	1481.000000	-6571.000000	-4601.000000	107.000000	9.000000	-34.000000	-43.000000	-314.000000	-51.000000	0.146484	0.390625	0.292969	0.039062	1.000000	1.000000	1.000000	0.000000
8/25/2022	4:02:20 PM	111573.000000	174454.000000	39973.000000	65177.000000	33502.000000	68639.000000	48295.000000	115637.000000	1421.000000	-6558.000000	-4499.000000	132.000000	34.000000	-36.000000	-46.000000	-324.000000	-47.000000	0.136719	0.351562	0.278320	0.034180	1.000000	1.000000	1.000000	0.000000
8/25/2022	4:02:20 PM	111016.000000	175556.000000	39859.000000	64759.000000	33441.000000	68766.000000	48484.000000	115038.000000	1475.000000	-6574.000000	-4587.000000	100.000000	28.000000	-2.000000	-44.000000	-327.000000	-53.000000	0.131836	0.356445	0.292969	0.039062	1.000000	1.000000	1.000000	0.000000
8/25/2022	4:02:20 PM	111350.000000	179817.000000	40074.000000	64986.000000	33603.000000	68724.000000	48337.000000	115999.000000	1410.000000	-6596.000000	-4694.000000	93.000000	86.000000	-17.000000	-43.000000	-319.000000	-52.000000	0.151367	0.371094	0.292969	0.034180	1.000000	1.000000	1.000000	0.000000
8/25/2022	4:02:20 PM	111016.000000	175556.000000	39816.000000	65177.000000	33746.000000	68809.000000	48337.000000	115396.000000	1541.000000	-6588.000000	-5071.000000	169.000000	-9.000000	-19.000000	-46.000000	-319.000000	-57.000000	0.156250	0.366211	0.278320	0.034180	1.000000	1.000000	1.000000	0.000000
8/25/2022	4:02:20 PM	111910.000000	175279.000000	39988.000000	66423.000000	33482.000000	68937.000000	48107.000000	114682.000000	1404.000000	-6549.000000	-4866.000000	354.000000	23.000000	-7.000000	-46.000000	-323.000000	-64.000000	0.141602	0.351562	0.273437	0.034180	1.000000	1.000000	1.000000	0.000000
8/25/2022	4:02:20 PM	111910.000000	176112.000000	39702.000000	66226.000000	33221.000000	68597.000000	48548.000000	115157.000000	1523.000000	-6657.000000	-4551.000000	369.000000	37.000000	13.000000	-43.000000	-319.000000	-64.000000	0.146484	0.356445	0.292969	0.029297	1.000000	1.000000	1.000000	0.000000
8/25/2022	4:02:20 PM	112023.000000	175003.000000	39930.000000	65445.000000	33532.000000	69585.000000	48358.000000	114564.000000	1713.000000	-6700.000000	-4412.000000	406.000000	-41.000000	75.000000	-40.000000	-318.000000	-61.000000	0.151367	0.351562	0.292969	0.029297	1.000000	1.000000	1.000000	0.000000
8/25/2022	4:02:20 PM	111910.000000	173365.000000	40045.000000	65872.000000	33162.000000	70067.000000	47920.000000	114682.000000	1486.000000	-6724.000000	-4264.000000	382.000000	63.000000	161.000000	-41.000000	-316.000000	-63.000000	0.156250	0.351562	0.273437	0.034180	1.000000	1.000000	1.000000	0.000000
8/25/2022	4:02:20 PM	111573.000000	177236.000000	39745.000000	66068.000000	33371.000000	69672.000000	47879.000000	117099.000000	1409.000000	-6828.000000	-4297.000000	354.000000	101.000000	182.000000	-45.000000	-315.000000	-65.000000	0.146484	0.341797	0.273437	0.029297	1.000000	1.000000	1.000000	0.000000
8/25/2022	4:02:20 PM	111910.000000	176112.000000	39973.000000	65253.000000	32521.000000	69672.000000	48316.000000	116363.000000	1242.000000	-6874.000000	-4221.000000	413.000000	178.000000	209.000000	-44.000000	-323.000000	-64.000000	0.146484	0.336914	0.288086	0.034180	1.000000	1.000000	1.000000	0.000000
8/25/2022	4:02:20 PM	111910.000000	176392.000000	39959.000000	65445.000000	32771.000000	69847.000000	48232.000000	117222.000000	1239.000000	-6960.000000	-4093.000000	384.000000	80.000000	131.000000	-37.000000	-329.000000	-63.000000	0.146484	0.366211	0.288086	0.034180	1.000000	1.000000	1.000000	0.000000
8/25/2022	4:02:20 PM	112363.000000	176954.000000	39873.000000	65100.000000	33132.000000	69585.000000	48527.000000	112136.000000	1097.000000	-7006.000000	-3874.000000	396.000000	43.000000	134.000000	-32.000000	-324.000000	-62.000000	0.141602	0.351562	0.278320	0.034180	1.000000	1.000000	1.000000	0.000000
8/25/2022	4:02:20 PM	111910.000000	178661.000000	40263.000000	64684.000000	33361.000000	69672.000000	48442.000000	113164.000000	1244.000000	-7079.000000	-3776.000000	318.000000	-58.000000	43.000000	-33.000000	-319.000000	-65.000000	0.136719	0.336914	0.273437	0.029297	1.000000	1.000000	1.000000	0.000000
8/25/2022	4:02:20 PM	112590.000000	177519.000000	40219.000000	64948.000000	33767.000000	70156.000000	48232.000000	114210.000000	1371.000000	-7074.000000	-3932.000000	316.000000	-30.000000	54.000000	-35.000000	-318.000000	-70.000000	0.141602	0.327148	0.297852	0.034180	1.000000	1.000000	1.000000	0.000000
8/25/2022	4:02:20 PM	113049.000000	176392.000000	40031.000000	65292.000000	33664.000000	70422.000000	48421.000000	112934.000000	1366.000000	-7110.000000	-3575.000000	289.000000	66.000000	94.000000	-40.000000	-320.000000	-66.000000	0.136719	0.302734	0.273437	0.034180	1.000000	1.000000	1.000000	0.000000
8/25/2022	4:02:20 PM	112705.000000	178088.000000	40321.000000	65755.000000	33715.000000	70023.000000	48442.000000	113859.000000	1218.000000	-7135.000000	-3775.000000	154.000000	123.000000	156.000000	-44.000000	-322.000000	-64.000000	0.151367	0.302734	0.273437	0.029297	1.000000	1.000000	1.000000	0.000000
8/25/2022	4:02:20 PM	113743.000000	180401.000000	40263.000000	65177.000000	33808.000000	70244.000000	47941.000000	113627.000000	1487.000000	-7161.000000	-3881.000000	231.000000	-26.000000	92.000000	-44.000000	-321.000000	-62.000000	0.151367	0.292969	0.283203	0.029297	1.000000	1.000000	1.000000	0.000000
8/25/2022	4:02:20 PM	113511.000000	179817.000000	40074.000000	65177.000000	33828.000000	70512.000000	48044.000000	114328.000000	1451.000000	-7127.000000	-3607.000000	206.000000	5.000000	307.000000	-48.000000	-320.000000	-60.000000	0.146484	0.292969	0.288086	0.029297	1.000000	1.000000	1.000000	0.000000
8/25/2022	4:02:21 PM	113279.000000	179527.000000	40074.000000	64608.000000	33777.000000	70512.000000	48148.000000	114210.000000	1503.000000	-7235.000000	-3526.000000	116.000000	-17.000000	310.000000	-53.000000	-322.000000	-64.000000	0.141602	0.283203	0.273437	0.029297	1.000000	1.000000	1.000000	0.000000
8/25/2022	4:02:21 PM	113395.000000	182475.000000	40248.000000	65445.000000	33963.000000	70691.000000	48232.000000	114919.000000	1198.000000	-7184.000000	-3345.000000	100.000000	107.000000	526.000000	-48.000000	-325.000000	-71.000000	0.146484	0.283203	0.288086	0.029297	1.000000	1.000000	1.000000	0.000000
8/25/2022	4:02:21 PM	112819.000000	182175.000000	40292.000000	65100.000000	33849.000000	70512.000000	48654.000000	115277.000000	958.000000	-7247.000000	-3727.000000	-53.000000	193.000000	535.000000	-43.000000	-328.000000	-67.000000	0.166016	0.268555	0.278320	0.029297	1.000000	1.000000	1.000000	0.000000
8/25/2022	4:02:21 PM	113164.000000	182775.000000	40336.000000	65445.000000	33767.000000	70826.000000	48211.000000	117969.000000	781.000000	-7264.000000	-3544.000000	57.000000	152.000000	575.000000	-41.000000	-333.000000	-60.000000	0.161133	0.268555	0.288086	0.034180	1.000000	1.000000	1.000000	0.000000
8/25/2022	4:02:21 PM	113395.000000	182775.000000	40409.000000	65523.000000	33563.000000	70067.000000	48316.000000	117969.000000	163.000000	-7309.000000	-3584.000000	-96.000000	214.000000	544.000000	-36.000000	-335.000000	-60.000000	0.161133	0.263672	0.283203	0.034180	1.000000	1.000000	1.000000	0.000000
8/25/2022	4:02:21 PM	113049.000000	181877.000000	40468.000000	65794.000000	33644.000000	71007.000000	48527.000000	118220.000000	-438.000000	-7401.000000	-3698.000000	-96.000000	257.000000	269.000000	-41.000000	-339.000000	-64.000000	0.146484	0.239258	0.278320	0.034180	1.000000	1.000000	1.000000	0.000000
8/25/2022	4:02:21 PM	112363.000000	183076.000000	40483.000000	65600.000000	33472.000000	71053.000000	48337.000000	118220.000000	-541.000000	-7344.000000	-3713.000000	-39.000000	117.000000	-128.000000	-43.000000	-344.000000	-62.000000	0.151367	0.229492	0.273437	0.034180	1.000000	1.000000	1.000000	0.000000
8/25/2022	4:02:21 PM	111910.000000	182775.000000	40527.000000	66344.000000	33849.000000	72066.000000	48633.000000	116853.000000	-135.000000	-7388.000000	-3627.000000	-53.000000	-121.000000	-368.000000	-38.000000	-340.000000	-54.000000	0.180664	0.253906	0.283203	0.034180	1.000000	1.000000	1.000000	0.000000
8/25/2022	4:02:21 PM	112136.000000	184596.000000	40483.000000	66186.000000	33726.000000	71880.000000	48654.000000	115999.000000	521.000000	-7179.000000	-3451.000000	-10.000000	-354.000000	-623.000000	-41.000000	-324.000000	-53.000000	0.161133	0.234375	0.273437	0.034180	1.000000	1.000000	1.000000	0.000000
8/25/2022	4:02:21 PM	112590.000000	183985.000000	40601.000000	66068.000000	33532.000000	71602.000000	48484.000000	116853.000000	1204.000000	-7290.000000	-3590.000000	-160.000000	-220.000000	-537.000000	-41.000000	-332.000000	-62.000000	0.151367	0.239258	0.283203	0.034180	1.000000	1.000000	1.000000	0.000000
8/25/2022	4:02:21 PM	113627.000000	180989.000000	40542.000000	65678.000000	33685.000000	71787.000000	48675.000000	118220.000000	1237.000000	-7101.000000	-3248.000000	-333.000000	52.000000	-343.000000	-43.000000	-347.000000	-69.000000	0.170898	0.268555	0.297852	0.034180	1.000000	1.000000	1.000000	0.000000
8/25/2022	4:02:21 PM	112477.000000	184290.000000	40691.000000	64721.000000	33603.000000	71418.000000	48761.000000	117719.000000	1315.000000	-7054.000000	-4050.000000	-553.000000	108.000000	-310.000000	-44.000000	-341.000000	-62.000000	0.161133	0.253906	0.288086	0.034180	1.000000	1.000000	1.000000	0.000000
8/25/2022	4:02:21 PM	113743.000000	181580.000000	40468.000000	64835.000000	34088.000000	70601.000000	48442.000000	118346.000000	1506.000000	-6985.000000	-4333.000000	-300.000000	-173.000000	-130.000000	-38.000000	-332.000000	-62.000000	0.151367	0.244141	0.278320	0.029297	1.000000	1.000000	1.000000	0.000000
8/25/2022	4:02:21 PM	113859.000000	182475.000000	40498.000000	64421.000000	33839.000000	70067.000000	48148.000000	117099.000000	1237.000000	-6824.000000	-4940.000000	-375.000000	223.000000	32.000000	-35.000000	-324.000000	-64.000000	0.180664	0.268555	0.273437	0.034180	1.000000	1.000000	1.000000	0.000000
8/25/2022	4:02:21 PM	113859.000000	179817.000000	40454.000000	64347.000000	33381.000000	70781.000000	47920.000000	118346.000000	989.000000	-6929.000000	-4677.000000	25.000000	1.000000	21.000000	-38.000000	-329.000000	-62.000000	0.175781	0.288086	0.278320	0.034180	1.000000	1.000000	1.000000	0.000000
8/25/2022	4:02:21 PM	113743.000000	179817.000000	40395.000000	64496.000000	32965.000000	69497.000000	47673.000000	119491.000000	1080.000000	-6861.000000	-4529.000000	64.000000	78.000000	43.000000	-43.000000	-333.000000	-59.000000	0.180664	0.297852	0.283203	0.039062	1.000000	1.000000	1.000000	0.000000
8/25/2022	4:02:21 PM	113395.000000	184596.000000	40542.000000	64684.000000	33271.000000	70917.000000	48044.000000	117099.000000	820.000000	-6941.000000	-4358.000000	113.000000	103.000000	-53.000000	-40.000000	-334.000000	-55.000000	0.185547	0.317383	0.278320	0.034180	1.000000	1.000000	1.000000	0.000000
8/25/2022	4:02:21 PM	114210.000000	183681.000000	40365.000000	64986.000000	33113.000000	70023.000000	47879.000000	118852.000000	1095.000000	-6897.000000	-4763.000000	286.000000	-112.000000	-73.000000	-34.000000	-335.000000	-62.000000	0.190430	0.312500	0.268555	0.034180	1.000000	1.000000	1.000000	0.000000
8/25/2022	4:02:21 PM	113279.000000	182475.000000	40483.000000	64646.000000	33192.000000	69891.000000	47776.000000	117969.000000	1255.000000	-6990.000000	-4407.000000	459.000000	-49.000000	-61.000000	-42.000000	-330.000000	-66.000000	0.156250	0.322266	0.278320	0.034180	1.000000	1.000000	1.000000	0.000000
8/25/2022	4:02:21 PM	113049.000000	183378.000000	40395.000000	65292.000000	33231.000000	69238.000000	47409.000000	118725.000000	1090.000000	-6990.000000	-3824.000000	408.000000	124.000000	34.000000	-47.000000	-325.000000	-62.000000	0.136719	0.317383	0.278320	0.029297	1.000000	1.000000	1.000000	0.000000
8/25/2022	4:02:21 PM	113049.000000	182175.000000	40248.000000	64797.000000	33482.000000	69715.000000	48003.000000	118725.000000	877.000000	-7153.000000	-3991.000000	439.000000	5.000000	-28.000000	-45.000000	-323.000000	-61.000000	0.180664	0.356445	0.278320	0.039062	1.000000	1.000000	1.000000	0.000000
8/25/2022	4:02:21 PM	113279.000000	182475.000000	40248.000000	64872.000000	32868.000000	70067.000000	48086.000000	119878.000000	986.000000	-7177.000000	-3708.000000	532.000000	-22.000000	-46.000000	-43.000000	-320.000000	-60.000000	0.156250	0.346680	0.273437	0.039062	1.000000	1.000000	1.000000	0.000000
8/25/2022	4:02:21 PM	113164.000000	180694.000000	40395.000000	65062.000000	32995.000000	70512.000000	47817.000000	117099.000000	1103.000000	-7234.000000	-3627.000000	379.000000	24.000000	-104.000000	-44.000000	-324.000000	-63.000000	0.161133	0.361328	0.278320	0.034180	1.000000	1.000000	1.000000	0.000000
8/25/2022	4:02:21 PM	113395.000000	180694.000000	40498.000000	64759.000000	32936.000000	70917.000000	48148.000000	119235.000000	1051.000000	-7290.000000	-3298.000000	422.000000	-81.000000	-73.000000	-46.000000	-320.000000	-64.000000	0.141602	0.351562	0.273437	0.039062	1.000000	1.000000	1.000000	0.000000
8/25/2022	4:02:21 PM	112705.000000	182475.000000	40646.000000	65523.000000	33162.000000	71281.000000	48232.000000	117844.000000	1062.000000	-7298.000000	-3095.000000	272.000000	-12.000000	-111.000000	-38.000000	-315.000000	-64.000000	0.131836	0.346680	0.288086	0.029297	1.000000	1.000000	1.000000	0.000000
8/25/2022	4:02:21 PM	111798.000000	180989.000000	40631.000000	65215.000000	32877.000000	71053.000000	48127.000000	118852.000000	1267.000000	-7318.000000	-3323.000000	171.000000	-35.000000	-83.000000	-38.000000	-318.000000	-70.000000	0.141602	0.322266	0.283203	0.039062	1.000000	1.000000	1.000000	0.000000
8/25/2022	4:02:21 PM	111910.000000	183378.000000	40498.000000	65600.000000	33152.000000	71189.000000	47899.000000	118725.000000	1173.000000	-7254.000000	-3334.000000	116.000000	31.000000	-56.000000	-46.000000	-321.000000	-70.000000	0.141602	0.307617	0.288086	0.039062	1.000000	1.000000	1.000000	0.000000
8/25/2022	4:02:21 PM	112819.000000	180694.000000	40631.000000	64872.000000	33152.000000	71281.000000	47858.000000	114919.000000	1301.000000	-7340.000000	-3742.000000	84.000000	-4.000000	-38.000000	-47.000000	-319.000000	-70.000000	0.136719	0.258789	0.278320	0.039062	1.000000	1.000000	1.000000	0.000000
8/25/2022	4:02:21 PM	113859.000000	179527.000000	40409.000000	65100.000000	33132.000000	71464.000000	48169.000000	116730.000000	1190.000000	-7294.000000	-3445.000000	186.000000	32.000000	15.000000	-41.000000	-310.000000	-78.000000	0.146484	0.268555	0.278320	0.039062	1.000000	1.000000	1.000000	0.000000
8/25/2022	4:02:22 PM	113859.000000	181877.000000	40527.000000	64759.000000	33182.000000	70736.000000	48337.000000	117844.000000	1185.000000	-7360.000000	-3282.000000	88.000000	49.000000	10.000000	-37.000000	-315.000000	-75.000000	0.161133	0.244141	0.283203	0.034180	1.000000	1.000000	1.000000	0.000000
8/25/2022	4:02:22 PM	114328.000000	182175.000000	40395.000000	65253.000000	33261.000000	70200.000000	48484.000000	119107.000000	1024.000000	-7323.000000	-3169.000000	73.000000	50.000000	-1.000000	-42.000000	-320.000000	-80.000000	0.166016	0.249023	0.288086	0.034180	1.000000	1.000000	1.000000	0.000000
8/25/2022	4:02:22 PM	114210.000000	183378.000000	40483.000000	65484.000000	33351.000000	69497.000000	48065.000000	114564.000000	1205.000000	-7371.000000	-3577.000000	-14.000000	1.000000	-25.000000	-45.000000	-315.000000	-82.000000	0.166016	0.244141	0.292969	0.039062	1.000000	1.000000	1.000000	0.000000
8/25/2022	4:02:22 PM	113976.000000	180401.000000	40616.000000	65330.000000	33241.000000	69628.000000	48358.000000	117099.000000	1160.000000	-7341.000000	-3530.000000	98.000000	-17.000000	-33.000000	-50.000000	-313.000000	-74.000000	0.166016	0.229492	0.288086	0.039062	1.000000	1.000000	1.000000	0.000000
8/25/2022	4:02:22 PM	114210.000000	181580.000000	40454.000000	65024.000000	33341.000000	70156.000000	48527.000000	117099.000000	1160.000000	-7339.000000	-3445.000000	29.000000	26.000000	-9.000000	-50.000000	-316.000000	-78.000000	0.166016	0.249023	0.288086	0.039062	1.000000	1.000000	1.000000	0.000000
8/25/2022	4:02:22 PM	113859.000000	177519.000000	40498.000000	64872.000000	32965.000000	70200.000000	48086.000000	117719.000000	1155.000000	-7328.000000	-3329.000000	88.000000	33.000000	-37.000000	-54.000000	-320.000000	-74.000000	0.141602	0.229492	0.288086	0.039062	1.000000	1.000000	1.000000	0.000000
8/25/2022	4:02:22 PM	114210.000000	178661.000000	40587.000000	65407.000000	33411.000000	70378.000000	48274.000000	117969.000000	1232.000000	-7369.000000	-3422.000000	-3.000000	15.000000	-26.000000	-55.000000	-320.000000	-65.000000	0.156250	0.244141	0.278320	0.039062	1.000000	1.000000	1.000000	0.000000
8/25/2022	4:02:22 PM	113511.000000	178088.000000	40631.000000	65330.000000	33192.000000	69935.000000	48086.000000	118094.000000	1226.000000	-7308.000000	-3415.000000	49.000000	-19.000000	4.000000	-50.000000	-319.000000	-64.000000	0.131836	0.239258	0.278320	0.034180	1.000000	1.000000	1.000000	0.000000
8/25/2022	4:02:22 PM	114093.000000	178088.000000	40616.000000	64986.000000	32713.000000	69324.000000	48274.000000	117595.000000	1222.000000	-7365.000000	-3448.000000	28.000000	28.000000	8.000000	-45.000000	-321.000000	-72.000000	0.126953	0.234375	0.283203	0.029297	1.000000	1.000000	1.000000	0.000000
8/25/2022	4:02:22 PM	113976.000000	178661.000000	40468.000000	65369.000000	32569.000000	69628.000000	48065.000000	118094.000000	1153.000000	-7341.000000	-3408.000000	43.000000	36.000000	27.000000	-49.000000	-319.000000	-72.000000	0.126953	0.253906	0.283203	0.039062	1.000000	1.000000	1.000000	0.000000
8/25/2022	4:02:22 PM	114328.000000	179237.000000	40825.000000	64835.000000	32800.000000	70289.000000	48003.000000	118472.000000	1104.000000	-7372.000000	-3454.000000	13.000000	46.000000	14.000000	-46.000000	-320.000000	-66.000000	0.151367	0.253906	0.283203	0.039062	1.000000	1.000000	1.000000	0.000000
8/25/2022	4:02:22 PM	113859.000000	178088.000000	40676.000000	64872.000000	32809.000000	69672.000000	47899.000000	117222.000000	1132.000000	-7353.000000	-3418.000000	44.000000	-14.000000	3.000000	-43.000000	-316.000000	-70.000000	0.131836	0.263672	0.278320	0.034180	1.000000	1.000000	1.000000	0.000000
8/25/2022	4:02:22 PM	114800.000000	177236.000000	40616.000000	65484.000000	32848.000000	69367.000000	48127.000000	119363.000000	1180.000000	-7316.000000	-3420.000000	24.000000	22.000000	-7.000000	-50.000000	-319.000000	-71.000000	0.131836	0.253906	0.278320	0.039062	1.000000	1.000000	1.000000	0.000000
8/25/2022	4:02:22 PM	114564.000000	177236.000000	40750.000000	64986.000000	33142.000000	70917.000000	48169.000000	120137.000000	1164.000000	-7362.000000	-3424.000000	56.000000	23.000000	6.000000	-51.000000	-323.000000	-78.000000	0.131836	0.253906	0.288086	0.039062	1.000000	1.000000	1.000000	0.000000
8/25/2022	4:02:22 PM	114446.000000	177236.000000	40676.000000	65215.000000	32877.000000	70601.000000	48253.000000	118979.000000	1129.000000	-7362.000000	-3404.000000	2.000000	46.000000	21.000000	-50.000000	-312.000000	-81.000000	0.112305	0.239258	0.297852	0.039062	1.000000	1.000000	1.000000	0.000000
8/25/2022	4:02:22 PM	114800.000000	177803.000000	40720.000000	64872.000000	32780.000000	71235.000000	48232.000000	118220.000000	1150.000000	-7338.000000	-3423.000000	41.000000	14.000000	-8.000000	-49.000000	-311.000000	-75.000000	0.122070	0.229492	0.327148	0.029297	0.000000	1.000000	0.000000	0.000000
8/25/2022	4:02:22 PM	115038.000000	177519.000000	40646.000000	65024.000000	32819.000000	69152.000000	48107.000000	117969.000000	1145.000000	-7361.000000	-3420.000000	16.000000	31.000000	-7.000000	-43.000000	-314.000000	-71.000000	0.112305	0.205078	0.346680	0.034180	0.000000	1.000000	0.000000	0.000000
8/25/2022	4:02:22 PM	113743.000000	178088.000000	40513.000000	65407.000000	32809.000000	70512.000000	48086.000000	118472.000000	1162.000000	-7353.000000	-3450.000000	16.000000	15.000000	-8.000000	-45.000000	-315.000000	-66.000000	0.107422	0.200195	0.375977	0.039062	0.000000	1.000000	0.000000	0.000000
8/25/2022	4:02:22 PM	114446.000000	178374.000000	40661.000000	64571.000000	32655.000000	70781.000000	48044.000000	118220.000000	1134.000000	-7349.000000	-3404.000000	16.000000	42.000000	0.000000	-51.000000	-320.000000	-64.000000	0.112305	0.190430	0.410156	0.039062	0.000000	1.000000	0.000000	0.000000
8/25/2022	4:02:22 PM	114919.000000	178088.000000	40557.000000	65024.000000	32732.000000	70736.000000	48274.000000	119491.000000	1238.000000	-7338.000000	-3524.000000	20.000000	9.000000	-12.000000	-45.000000	-321.000000	-69.000000	0.112305	0.214844	0.444336	0.043945	0.000000	1.000000	0.000000	0.000000
8/25/2022	4:02:23 PM	114800.000000	180989.000000	40513.000000	65177.000000	32684.000000	69979.000000	48107.000000	119749.000000	1199.000000	-7308.000000	-3483.000000	64.000000	21.000000	-4.000000	-37.000000	-320.000000	-78.000000	0.112305	0.209961	0.473633	0.039062	0.000000	1.000000	0.000000	0.000000
8/25/2022	4:02:23 PM	115396.000000	180989.000000	40336.000000	64235.000000	32800.000000	70781.000000	48107.000000	119107.000000	1186.000000	-7344.000000	-3444.000000	37.000000	38.000000	3.000000	-46.000000	-311.000000	-80.000000	0.112305	0.224609	0.493164	0.039062	0.000000	1.000000	0.000000	0.000000
8/25/2022	4:02:23 PM	115038.000000	180401.000000	40468.000000	64309.000000	32907.000000	70917.000000	48003.000000	117470.000000	1188.000000	-7338.000000	-3386.000000	41.000000	24.000000	15.000000	-53.000000	-308.000000	-70.000000	0.102539	0.219727	0.483398	0.034180	0.000000	1.000000	0.000000	0.000000
8/25/2022	4:02:23 PM	115516.000000	180109.000000	40527.000000	64309.000000	32732.000000	70691.000000	47796.000000	118346.000000	1108.000000	-7358.000000	-3414.000000	35.000000	37.000000	11.000000	-50.000000	-315.000000	-72.000000	0.107422	0.229492	0.468750	0.039062	0.000000	1.000000	0.000000	0.000000
8/25/2022	4:02:23 PM	114682.000000	181284.000000	40542.000000	64458.000000	32732.000000	70826.000000	48211.000000	117969.000000	1118.000000	-7357.000000	-3443.000000	43.000000	26.000000	3.000000	-50.000000	-322.000000	-76.000000	0.117187	0.253906	0.483398	0.039062	0.000000	1.000000	0.000000	0.000000
8/25/2022	4:02:23 PM	115637.000000	181284.000000	40527.000000	64721.000000	32540.000000	70917.000000	48023.000000	119491.000000	1032.000000	-7359.000000	-3409.000000	36.000000	63.000000	-31.000000	-44.000000	-319.000000	-75.000000	0.102539	0.239258	0.493164	0.034180	0.000000	1.000000	0.000000	0.000000
8/25/2022	4:02:23 PM	115396.000000	183076.000000	40468.000000	64797.000000	32636.000000	70781.000000	48169.000000	119491.000000	1145.000000	-7344.000000	-3421.000000	33.000000	-17.000000	-14.000000	-45.000000	-318.000000	-73.000000	0.122070	0.283203	0.507812	0.039062	0.000000	1.000000	0.000000	0.000000
8/25/2022	4:02:23 PM	115637.000000	182775.000000	40616.000000	64013.000000	32809.000000	70872.000000	48065.000000	119363.000000	1183.000000	-7345.000000	-3469.000000	18.000000	15.000000	-38.000000	-42.000000	-324.000000	-76.000000	0.112305	0.263672	0.493164	0.039062	0.000000	1.000000	0.000000	0.000000
8/25/2022	4:02:23 PM	115396.000000	182775.000000	40468.000000	64608.000000	32780.000000	70333.000000	48169.000000	119620.000000	1249.000000	-7343.000000	-3478.000000	59.000000	-7.000000	-3.000000	-41.000000	-319.000000	-78.000000	0.112305	0.283203	0.473633	0.043945	0.000000	1.000000	0.000000	0.000000
8/25/2022	4:02:23 PM	115637.000000	181284.000000	40616.000000	64087.000000	32771.000000	70378.000000	48023.000000	119491.000000	1237.000000	-7477.000000	-3395.000000	33.000000	41.000000	-29.000000	-46.000000	-315.000000	-72.000000	0.126953	0.312500	0.473633	0.053711	0.000000	1.000000	0.000000	0.000000
8/25/2022	4:02:23 PM	114328.000000	182475.000000	40631.000000	64721.000000	32916.000000	70422.000000	48211.000000	117099.000000	1179.000000	-7313.000000	-3336.000000	-5.000000	5.000000	39.000000	-44.000000	-315.000000	-70.000000	0.166016	0.356445	0.498047	0.043945	0.000000	1.000000	0.000000	0.000000
8/25/2022	4:02:23 PM	113164.000000	183681.000000	40513.000000	64684.000000	32684.000000	71418.000000	48190.000000	117844.000000	1187.000000	-7547.000000	-3312.000000	-7.000000	-7.000000	6.000000	-50.000000	-313.000000	-72.000000	0.146484	0.312500	0.468750	0.043945	0.000000	1.000000	0.000000	0.000000
8/25/2022	4:02:23 PM	112819.000000	180989.000000	40483.000000	64235.000000	32531.000000	71834.000000	48107.000000	119620.000000	1245.000000	-7405.000000	-3560.000000	27.000000	-86.000000	91.000000	-46.000000	-315.000000	-78.000000	0.219727	0.405273	0.532227	0.073242	0.000000	1.000000	0.000000	0.000000
8/25/2022	4:02:23 PM	111798.000000	182775.000000	40616.000000	64347.000000	32936.000000	70467.000000	49214.000000	118220.000000	1350.000000	-7299.000000	-3447.000000	-6.000000	-126.000000	-75.000000	-40.000000	-315.000000	-79.000000	0.244141	0.424805	0.498047	0.058594	0.000000	1.000000	0.000000	0.000000
8/25/2022	4:02:23 PM	111238.000000	180401.000000	40234.000000	64684.000000	33603.000000	70781.000000	51735.000000	121053.000000	1071.000000	-7370.000000	-3637.000000	-92.000000	42.000000	-54.000000	-45.000000	-314.000000	-80.000000	0.332031	0.458984	0.512695	0.053711	0.000000	1.000000	0.000000	0.000000
8/25/2022	4:02:23 PM	110464.000000	179817.000000	40395.000000	64948.000000	34224.000000	70289.000000	52319.000000	119107.000000	1039.000000	-7366.000000	-3713.000000	90.000000	43.000000	-114.000000	-47.000000	-314.000000	-80.000000	0.439453	0.556641	0.551758	0.092773	0.000000	1.000000	0.000000	0.000000
8/25/2022	4:02:23 PM	108735.000000	178661.000000	39688.000000	65600.000000	35345.000000	71741.000000	52468.000000	119491.000000	1243.000000	-7137.000000	-3478.000000	204.000000	-162.000000	-28.000000	-44.000000	-311.000000	-73.000000	0.512695	0.590820	0.581055	0.087891	0.000000	1.000000	0.000000	0.000000
8/25/2022	4:02:23 PM	105835.000000	172290.000000	39659.000000	66384.000000	34565.000000	70467.000000	52418.000000	123200.000000	950.000000	-7283.000000	-3254.000000	-76.000000	-41.000000	-28.000000	-45.000000	-304.000000	-71.000000	0.390625	0.512695	0.493164	0.078125	0.000000	1.000000	0.000000	0.000000
8/25/2022	4:02:23 PM	104442.000000	172557.000000	38923.000000	68051.000000	34879.000000	69628.000000	52468.000000	112023.000000	1207.000000	-7310.000000	-3462.000000	130.000000	-177.000000	25.000000	-47.000000	-304.000000	-73.000000	0.390625	0.483398	0.449219	0.068359	0.000000	1.000000	0.000000	0.000000
8/25/2022	4:02:23 PM	105234.000000	169919.000000	38478.000000	68051.000000	34945.000000	69152.000000	52319.000000	110027.000000	1135.000000	-7201.000000	-3503.000000	3.000000	49.000000	71.000000	-49.000000	-313.000000	-79.000000	0.551758	0.576172	0.517578	0.092773	0.000000	1.000000	0.000000	0.000000
8/25/2022	4:02:24 PM	105533.000000	168119.000000	38306.000000	67884.000000	34759.000000	67390.000000	52418.000000	110136.000000	1123.000000	-7332.000000	-3460.000000	85.000000	26.000000	35.000000	-52.000000	-309.000000	-82.000000	0.458984	0.527344	0.483398	0.092773	0.000000	1.000000	0.000000	0.000000
8/25/2022	4:02:24 PM	106341.000000	168886.000000	38439.000000	66863.000000	34468.000000	66984.000000	52468.000000	110027.000000	1114.000000	-7248.000000	-3504.000000	59.000000	10.000000	30.000000	-54.000000	-305.000000	-75.000000	0.454102	0.522461	0.468750	0.078125	0.000000	1.000000	0.000000	0.000000
8/25/2022	4:02:24 PM	104246.000000	168630.000000	38253.000000	67513.000000	34533.000000	66305.000000	52099.000000	108948.000000	1097.000000	-7456.000000	-3415.000000	102.000000	-88.000000	-16.000000	-50.000000	-315.000000	-76.000000	0.439453	0.502930	0.424805	0.078125	0.000000	1.000000	0.000000	0.000000
8/25/2022	4:02:24 PM	104051.000000	170179.000000	37888.000000	66863.000000	35066.000000	66186.000000	51880.000000	109269.000000	1132.000000	-7227.000000	-3461.000000	158.000000	21.000000	-47.000000	-47.000000	-314.000000	-76.000000	0.444336	0.532227	0.507812	0.107422	0.000000	1.000000	0.000000	0.000000
8/25/2022	4:02:24 PM	102233.000000	169401.000000	37241.000000	66944.000000	34298.000000	64309.000000	51639.000000	110905.000000	1147.000000	-7400.000000	-3348.000000	31.000000	31.000000	34.000000	-49.000000	-311.000000	-73.000000	0.473633	0.502930	0.478516	0.107422	0.000000	1.000000	0.000000	0.000000
8/25/2022	4:02:24 PM	103566.000000	168630.000000	36956.000000	66265.000000	34098.000000	64198.000000	51022.000000	108100.000000	1090.000000	-7325.000000	-3373.000000	37.000000	107.000000	26.000000	-49.000000	-312.000000	-79.000000	0.449219	0.488281	0.444336	0.083008	0.000000	1.000000	0.000000	0.000000
8/25/2022	4:02:24 PM	102327.000000	166358.000000	36411.000000	66543.000000	32839.000000	63068.000000	50238.000000	108205.000000	1089.000000	-7350.000000	-3392.000000	-3.000000	19.000000	28.000000	-46.000000	-314.000000	-81.000000	0.400391	0.454102	0.415039	0.087891	0.000000	1.000000	0.000000	0.000000
8/25/2022	4:02:24 PM	100841.000000	166607.000000	36304.000000	67187.000000	32210.000000	61703.000000	51163.000000	104541.000000	1109.000000	-7351.000000	-3447.000000	67.000000	44.000000	-42.000000	-44.000000	-318.000000	-81.000000	0.361328	0.424805	0.415039	0.092773	0.000000	1.000000	0.000000	0.000000
8/25/2022	4:02:24 PM	101486.000000	166607.000000	36543.000000	67065.000000	32493.000000	61943.000000	51163.000000	104149.000000	1203.000000	-7349.000000	-3503.000000	32.000000	7.000000	-10.000000	-52.000000	-323.000000	-75.000000	0.419922	0.502930	0.546875	0.122070	0.000000	1.000000	0.000000	0.000000
8/25/2022	4:02:24 PM	100476.000000	166109.000000	36483.000000	67309.000000	31678.000000	62466.000000	49877.000000	105234.000000	1192.000000	-7320.000000	-3381.000000	106.000000	15.000000	-18.000000	-52.000000	-321.000000	-71.000000	0.361328	0.434570	0.439453	0.102539	0.000000	1.000000	0.000000	0.000000
8/25/2022	4:02:24 PM	101208.000000	167866.000000	36748.000000	66423.000000	31796.000000	63104.000000	49788.000000	104738.000000	1129.000000	-7374.000000	-3369.000000	33.000000	67.000000	32.000000	-52.000000	-313.000000	-75.000000	0.434570	0.434570	0.419922	0.112305	0.000000	1.000000	0.000000	0.000000
8/25/2022	4:02:24 PM	100476.000000	166358.000000	36919.000000	66743.000000	32154.000000	62819.000000	49765.000000	106240.000000	1053.000000	-7376.000000	-3409.000000	15.000000	104.000000	30.000000	-47.000000	-310.000000	-76.000000	0.444336	0.439453	0.419922	0.107422	0.000000	1.000000	0.000000	0.000000
8/25/2022	4:02:24 PM	102139.000000	168374.000000	36483.000000	67146.000000	32089.000000	62961.000000	49989.000000	106853.000000	1060.000000	-7365.000000	-3338.000000	16.000000	39.000000	22.000000	-50.000000	-314.000000	-70.000000	0.415039	0.419922	0.390625	0.107422	0.000000	1.000000	0.000000	0.000000
8/25/2022	4:02:24 PM	101764.000000	167866.000000	36010.000000	67843.000000	32445.000000	63610.000000	49588.000000	106240.000000	1141.000000	-7347.000000	-3463.000000	30.000000	27.000000	-13.000000	-53.000000	-311.000000	-65.000000	0.405273	0.410156	0.400391	0.122070	0.000000	1.000000	0.000000	0.000000
8/25/2022	4:02:24 PM	101116.000000	167612.000000	36150.000000	66186.000000	32080.000000	63428.000000	49171.000000	106750.000000	1080.000000	-7342.000000	-3418.000000	64.000000	24.000000	-19.000000	-47.000000	-306.000000	-65.000000	0.336914	0.371094	0.375977	0.092773	0.000000	1.000000	0.000000	0.000000
8/25/2022	4:02:24 PM	101301.000000	167866.000000	36162.000000	66265.000000	31988.000000	63501.000000	50420.000000	107785.000000	1198.000000	-7347.000000	-3465.000000	25.000000	11.000000	12.000000	-43.000000	-316.000000	-66.000000	0.366211	0.341797	0.351562	0.083008	0.000000	1.000000	0.000000	0.000000
8/25/2022	4:02:24 PM	101393.000000	167866.000000	36186.000000	66107.000000	32276.000000	64347.000000	48911.000000	104541.000000	1108.000000	-7389.000000	-3454.000000	-20.000000	71.000000	37.000000	-45.000000	-318.000000	-64.000000	0.532227	0.468750	0.444336	0.102539	0.000000	1.000000	0.000000	0.000000
8/25/2022	4:02:24 PM	101858.000000	168374.000000	36268.000000	65253.000000	32173.000000	63866.000000	48295.000000	106240.000000	1092.000000	-7388.000000	-3431.000000	70.000000	-25.000000	-6.000000	-46.000000	-313.000000	-64.000000	0.439453	0.444336	0.439453	0.102539	0.000000	1.000000	0.000000	0.000000
8/25/2022	4:02:24 PM	100841.000000	166857.000000	36138.000000	65872.000000	31841.000000	62466.000000	49171.000000	104738.000000	1148.000000	-7376.000000	-3461.000000	2.000000	26.000000	10.000000	-43.000000	-306.000000	-67.000000	0.483398	0.454102	0.429687	0.087891	0.000000	1.000000	0.000000	0.000000
8/25/2022	4:02:24 PM	100204.000000	168374.000000	36233.000000	65600.000000	31859.000000	63068.000000	49127.000000	104837.000000	1019.000000	-7358.000000	-3416.000000	76.000000	35.000000	-31.000000	-51.000000	-313.000000	-67.000000	0.473633	0.429687	0.419922	0.058594	0.000000	1.000000	0.000000	0.000000
8/25/2022	4:02:25 PM	100658.000000	166358.000000	35998.000000	65330.000000	31869.000000	63719.000000	49324.000000	105533.000000	1120.000000	-7342.000000	-3389.000000	33.000000	24.000000	-3.000000	-53.000000	-322.000000	-73.000000	0.527344	0.468750	0.434570	0.087891	0.000000	1.000000	0.000000	0.000000
8/25/2022	4:02:25 PM	100476.000000	166358.000000	36103.000000	66029.000000	31796.000000	63939.000000	49280.000000	104936.000000	1110.000000	-7400.000000	-3448.000000	38.000000	40.000000	-11.000000	-53.000000	-311.000000	-74.000000	0.478516	0.454102	0.395508	0.092773	0.000000	1.000000	0.000000	0.000000
8/25/2022	4:02:25 PM	101208.000000	168119.000000	36045.000000	64986.000000	31832.000000	63756.000000	49019.000000	105333.000000	1102.000000	-7397.000000	-3329.000000	55.000000	3.000000	-14.000000	-59.000000	-306.000000	-67.000000	0.395508	0.424805	0.380859	0.078125	0.000000	1.000000	0.000000	0.000000
8/25/2022	4:02:25 PM	101208.000000	168630.000000	36092.000000	64835.000000	31796.000000	62997.000000	48933.000000	105134.000000	1112.000000	-7338.000000	-3383.000000	44.000000	54.000000	-8.000000	-54.000000	-311.000000	-67.000000	0.336914	0.375977	0.346680	0.097656	0.000000	1.000000	0.000000	0.000000
8/25/2022	4:02:25 PM	100750.000000	168886.000000	36304.000000	65369.000000	31615.000000	62571.000000	49499.000000	105134.000000	1164.000000	-7362.000000	-3386.000000	61.000000	7.000000	9.000000	-49.000000	-310.000000	-66.000000	0.380859	0.395508	0.395508	0.087891	0.000000	1.000000	0.000000	0.000000
8/25/2022	4:02:25 PM	101116.000000	168374.000000	36327.000000	65407.000000	31588.000000	62890.000000	49765.000000	105835.000000	1095.000000	-7478.000000	-3437.000000	31.000000	77.000000	-7.000000	-53.000000	-304.000000	-63.000000	0.390625	0.429687	0.468750	0.097656	0.000000	1.000000	0.000000	0.000000
8/25/2022	4:02:25 PM	100476.000000	166358.000000	36245.000000	65139.000000	31651.000000	62606.000000	50147.000000	104936.000000	1054.000000	-7363.000000	-3323.000000	47.000000	18.000000	5.000000	-52.000000	-305.000000	-66.000000	0.444336	0.439453	0.454102	0.097656	0.000000	1.000000	0.000000	0.000000
8/25/2022	4:02:25 PM	101116.000000	166607.000000	36010.000000	65139.000000	31615.000000	62925.000000	49544.000000	104936.000000	1095.000000	-7414.000000	-3373.000000	6.000000	36.000000	-10.000000	-53.000000	-320.000000	-74.000000	0.385742	0.405273	0.395508	0.073242	0.000000	1.000000	0.000000	0.000000
8/25/2022	4:02:25 PM	100841.000000	168119.000000	36209.000000	64198.000000	31436.000000	62256.000000	49632.000000	105134.000000	1162.000000	-7401.000000	-3449.000000	20.000000	-13.000000	16.000000	-52.000000	-321.000000	-73.000000	0.415039	0.405273	0.371094	0.063477	0.000000	1.000000	0.000000	0.000000
8/25/2022	4:02:25 PM	101024.000000	167360.000000	36010.000000	63902.000000	31669.000000	62712.000000	49389.000000	107369.000000	1124.000000	-7306.000000	-3445.000000	91.000000	48.000000	-18.000000	-45.000000	-308.000000	-65.000000	0.371094	0.400391	0.395508	0.078125	0.000000	1.000000	0.000000	0.000000
8/25/2022	4:02:25 PM	100385.000000	167866.000000	36045.000000	65024.000000	31356.000000	63212.000000	49127.000000	106138.000000	1145.000000	-7405.000000	-3324.000000	49.000000	16.000000	8.000000	-45.000000	-309.000000	-71.000000	0.410156	0.424805	0.419922	0.083008	0.000000	1.000000	0.000000	0.000000
8/25/2022	4:02:25 PM	100750.000000	167360.000000	35905.000000	65253.000000	31489.000000	62221.000000	48890.000000	106037.000000	1088.000000	-7385.000000	-3340.000000	6.000000	50.000000	33.000000	-46.000000	-315.000000	-75.000000	0.361328	0.375977	0.366211	0.073242	0.000000	1.000000	0.000000	0.000000
8/25/2022	4:02:25 PM	99665.000000	167612.000000	35859.000000	64835.000000	31606.000000	61600.000000	50057.000000	107890.000000	1097.000000	-7370.000000	-3339.000000	79.000000	-8.000000	2.000000	-43.000000	-315.000000	-75.000000	0.366211	0.351562	0.351562	0.053711	0.000000	1.000000	0.000000	0.000000
8/25/2022	4:02:25 PM	99755.000000	167612.000000	35583.000000	65139.000000	31859.000000	62186.000000	49632.000000	114446.000000	1080.000000	-7364.000000	-3328.000000	38.000000	59.000000	-26.000000	-45.000000	-311.000000	-69.000000	0.375977	0.395508	0.366211	0.068359	0.000000	1.000000	0.000000	0.000000
8/25/2022	4:02:25 PM	99665.000000	168886.000000	35720.000000	64421.000000	31436.000000	62221.000000	49743.000000	112934.000000	1072.000000	-7422.000000	-3357.000000	36.000000	-6.000000	-4.000000	-45.000000	-312.000000	-73.000000	0.351562	0.361328	0.351562	0.078125	0.000000	1.000000	0.000000	0.000000
8/25/2022	4:02:25 PM	100204.000000	168374.000000	35824.000000	64721.000000	31777.000000	62047.000000	49944.000000	113279.000000	1084.000000	-7361.000000	-3391.000000	51.000000	41.000000	4.000000	-47.000000	-319.000000	-67.000000	0.385742	0.405273	0.415039	0.122070	0.000000	1.000000	0.000000	0.000000
8/25/2022	4:02:25 PM	100204.000000	167866.000000	35379.000000	64797.000000	31615.000000	61668.000000	50283.000000	115637.000000	1128.000000	-7395.000000	-3401.000000	12.000000	16.000000	17.000000	-53.000000	-315.000000	-67.000000	0.463867	0.439453	0.444336	0.107422	0.000000	1.000000	0.000000	0.000000
8/25/2022	4:02:25 PM	99220.000000	167612.000000	35583.000000	64272.000000	31669.000000	62925.000000	49810.000000	113743.000000	1141.000000	-7329.000000	-3312.000000	50.000000	17.000000	-17.000000	-57.000000	-314.000000	-71.000000	0.371094	0.390625	0.385742	0.092773	0.000000	1.000000	0.000000	0.000000
8/25/2022	4:02:25 PM	99487.000000	168119.000000	35481.000000	63829.000000	31552.000000	62961.000000	49765.000000	114446.000000	1164.000000	-7388.000000	-3332.000000	23.000000	11.000000	15.000000	-54.000000	-314.000000	-71.000000	0.434570	0.380859	0.366211	0.083008	0.000000	1.000000	0.000000	0.000000
8/25/2022	4:02:25 PM	98429.000000	167360.000000	35720.000000	64235.000000	31741.000000	62925.000000	49810.000000	113279.000000	1141.000000	-7383.000000	-3430.000000	21.000000	35.000000	-23.000000	-55.000000	-308.000000	-72.000000	0.366211	0.380859	0.366211	0.083008	0.000000	1.000000	0.000000	0.000000
8/25/2022	4:02:26 PM	98779.000000	167360.000000	35594.000000	63866.000000	31329.000000	62925.000000	50352.000000	114919.000000	1178.000000	-7386.000000	-3437.000000	19.000000	70.000000	16.000000	-52.000000	-309.000000	-80.000000	0.380859	0.380859	0.366211	0.073242	0.000000	1.000000	0.000000	0.000000
8/25/2022	4:02:26 PM	99934.000000	166358.000000	35312.000000	63939.000000	31409.000000	62712.000000	50673.000000	113279.000000	1125.000000	-7415.000000	-3362.000000	66.000000	15.000000	-2.000000	-47.000000	-316.000000	-85.000000	0.385742	0.395508	0.380859	0.053711	0.000000	1.000000	0.000000	0.000000
8/25/2022	4:02:26 PM	99487.000000	165861.000000	34836.000000	63719.000000	30946.000000	62819.000000	51046.000000	113279.000000	1077.000000	-7370.000000	-3287.000000	22.000000	7.000000	5.000000	-48.000000	-317.000000	-82.000000	0.390625	0.390625	0.390625	0.063477	0.000000	1.000000	0.000000	0.000000
8/25/2022	4:02:26 PM	99043.000000	165122.000000	34619.000000	63537.000000	30903.000000	62571.000000	51046.000000	113976.000000	1017.000000	-7403.000000	-3411.000000	68.000000	24.000000	-26.000000	-47.000000	-313.000000	-81.000000	0.336914	0.375977	0.371094	0.078125	0.000000	1.000000	0.000000	0.000000
8/25/2022	4:02:26 PM	99755.000000	164877.000000	34511.000000	62819.000000	30954.000000	62501.000000	50975.000000	112363.000000	1152.000000	-7405.000000	-3468.000000	22.000000	15.000000	4.000000	-45.000000	-316.000000	-81.000000	0.439453	0.395508	0.385742	0.087891	0.000000	1.000000	0.000000	0.000000
8/25/2022	4:02:26 PM	100295.000000	166358.000000	34640.000000	62712.000000	30928.000000	62677.000000	51069.000000	112477.000000	997.000000	-7390.000000	-3303.000000	79.000000	-3.000000	-20.000000	-50.000000	-311.000000	-84.000000	0.488281	0.458984	0.429687	0.092773	0.000000	1.000000	0.000000	0.000000
8/25/2022	4:02:26 PM	99844.000000	166857.000000	34879.000000	63068.000000	30638.000000	62854.000000	51069.000000	112363.000000	1083.000000	-7435.000000	-3242.000000	47.000000	2.000000	-17.000000	-53.000000	-310.000000	-82.000000	0.332031	0.395508	0.424805	0.078125	0.000000	1.000000	0.000000	0.000000
8/25/2022	4:02:26 PM	100567.000000	167108.000000	34814.000000	63320.000000	30877.000000	63033.000000	51140.000000	112249.000000	1173.000000	-7371.000000	-3306.000000	5.000000	41.000000	-18.000000	-45.000000	-319.000000	-83.000000	0.341797	0.361328	0.375977	0.063477	0.000000	1.000000	0.000000	0.000000
8/25/2022	4:02:26 PM	100841.000000	167108.000000	34956.000000	63465.000000	30622.000000	62606.000000	51281.000000	112136.000000	1174.000000	-7404.000000	-3454.000000	34.000000	53.000000	-26.000000	-41.000000	-320.000000	-85.000000	0.361328	0.395508	0.390625	0.102539	0.000000	1.000000	0.000000	0.000000
8/25/2022	4:02:26 PM	101116.000000	166857.000000	34890.000000	63248.000000	30689.000000	62151.000000	51140.000000	112705.000000	1198.000000	-7369.000000	-3439.000000	17.000000	-4.000000	11.000000	-45.000000	-315.000000	-90.000000	0.346680	0.361328	0.380859	0.083008	0.000000	1.000000	0.000000	0.000000
8/25/2022	4:02:26 PM	101486.000000	165861.000000	34825.000000	62606.000000	30808.000000	62431.000000	50581.000000	113627.000000	1044.000000	-7415.000000	-3324.000000	59.000000	36.000000	4.000000	-47.000000	-310.000000	-89.000000	0.366211	0.361328	0.371094	0.083008	0.000000	1.000000	0.000000	0.000000
8/25/2022	4:02:26 PM	100114.000000	167360.000000	34945.000000	62396.000000	30808.000000	62997.000000	50329.000000	113164.000000	1051.000000	-7404.000000	-3258.000000	27.000000	28.000000	9.000000	-49.000000	-306.000000	-83.000000	0.385742	0.366211	0.366211	0.078125	0.000000	1.000000	0.000000	0.000000
8/25/2022	4:02:26 PM	100476.000000	165614.000000	35011.000000	62961.000000	30989.000000	62961.000000	50192.000000	114210.000000	1061.000000	-7388.000000	-3369.000000	12.000000	45.000000	2.000000	-51.000000	-306.000000	-81.000000	0.371094	0.356445	0.356445	0.083008	0.000000	1.000000	0.000000	0.000000
8/25/2022	4:02:26 PM	100476.000000	167612.000000	34781.000000	63501.000000	31101.000000	62819.000000	50397.000000	113164.000000	1079.000000	-7361.000000	-3430.000000	67.000000	12.000000	-28.000000	-44.000000	-310.000000	-78.000000	0.375977	0.375977	0.356445	0.083008	0.000000	1.000000	0.000000	0.000000
8/25/2022	4:02:26 PM	100567.000000	168119.000000	34662.000000	63320.000000	31128.000000	62748.000000	50238.000000	112136.000000	1148.000000	-7387.000000	-3303.000000	32.000000	17.000000	13.000000	-37.000000	-314.000000	-80.000000	0.371094	0.366211	0.341797	0.073242	0.000000	1.000000	0.000000	0.000000
8/25/2022	4:02:26 PM	100841.000000	167108.000000	34759.000000	62961.000000	31570.000000	62606.000000	50375.000000	110245.000000	1137.000000	-7379.000000	-3312.000000	36.000000	25.000000	7.000000	-40.000000	-312.000000	-83.000000	0.356445	0.371094	0.346680	0.068359	0.000000	1.000000	0.000000	0.000000
8/25/2022	4:02:26 PM	100114.000000	167612.000000	34629.000000	63212.000000	31215.000000	61909.000000	50261.000000	113976.000000	1158.000000	-7386.000000	-3304.000000	48.000000	26.000000	5.000000	-43.000000	-303.000000	-80.000000	0.327148	0.410156	0.395508	0.078125	0.000000	1.000000	0.000000	0.000000
8/25/2022	4:02:26 PM	100295.000000	167108.000000	34479.000000	63356.000000	31312.000000	62256.000000	50057.000000	113395.000000	1083.000000	-7354.000000	-3318.000000	14.000000	55.000000	1.000000	-44.000000	-305.000000	-75.000000	0.371094	0.405273	0.385742	0.083008	0.000000	1.000000	0.000000	0.000000
8/25/2022	4:02:26 PM	101024.000000	167108.000000	34727.000000	63756.000000	31128.000000	62748.000000	50535.000000	113279.000000	1096.000000	-7421.000000	-3367.000000	31.000000	-1.000000	-2.000000	-44.000000	-313.000000	-76.000000	0.341797	0.371094	0.346680	0.068359	0.000000	1.000000	0.000000	0.000000
8/25/2022	4:02:26 PM	100567.000000	166857.000000	34619.000000	63646.000000	30971.000000	62748.000000	50466.000000	113164.000000	1065.000000	-7405.000000	-3362.000000	33.000000	44.000000	-28.000000	-46.000000	-315.000000	-75.000000	0.361328	0.366211	0.332031	0.083008	0.000000	1.000000	0.000000	0.000000
8/25/2022	4:02:27 PM	100476.000000	167108.000000	34847.000000	63356.000000	30877.000000	62854.000000	50512.000000	112934.000000	1194.000000	-7424.000000	-3361.000000	22.000000	14.000000	5.000000	-47.000000	-318.000000	-84.000000	0.429687	0.400391	0.371094	0.112305	0.000000	1.000000	0.000000	0.000000
8/25/2022	4:02:27 PM	100295.000000	167612.000000	34522.000000	63033.000000	30783.000000	62712.000000	50329.000000	114210.000000	1179.000000	-7368.000000	-3354.000000	16.000000	37.000000	-18.000000	-44.000000	-319.000000	-84.000000	0.380859	0.332031	0.317383	0.083008	0.000000	1.000000	0.000000	0.000000
8/25/2022	4:02:27 PM	100658.000000	167360.000000	34597.000000	62396.000000	30842.000000	62360.000000	50329.000000	114800.000000	1132.000000	-7382.000000	-3349.000000	100.000000	-2.000000	-14.000000	-37.000000	-318.000000	-79.000000	0.356445	0.312500	0.312500	0.083008	0.000000	1.000000	0.000000	0.000000
8/25/2022	4:02:27 PM	100750.000000	167866.000000	34868.000000	63033.000000	30928.000000	62431.000000	50283.000000	114210.000000	1113.000000	-7410.000000	-3338.000000	5.000000	62.000000	-1.000000	-38.000000	-318.000000	-84.000000	0.366211	0.332031	0.341797	0.092773	0.000000	1.000000	0.000000	0.000000
8/25/2022	4:02:27 PM	100841.000000	166109.000000	34868.000000	63465.000000	30954.000000	62221.000000	50604.000000	112934.000000	1139.000000	-7374.000000	-3365.000000	69.000000	15.000000	18.000000	-45.000000	-319.000000	-86.000000	0.366211	0.380859	0.351562	0.107422	0.000000	1.000000	0.000000	0.000000
8/25/2022	4:02:27 PM	100114.000000	165861.000000	34792.000000	63428.000000	31110.000000	61498.000000	50696.000000	113627.000000	1101.000000	-7416.000000	-3347.000000	41.000000	40.000000	-2.000000	-42.000000	-316.000000	-82.000000	0.356445	0.356445	0.336914	0.087891	0.000000	1.000000	0.000000	0.000000
8/25/2022	4:02:27 PM	99934.000000	166109.000000	34727.000000	63465.000000	30946.000000	62221.000000	50306.000000	112477.000000	1165.000000	-7401.000000	-3287.000000	52.000000	0.000000	-10.000000	-40.000000	-312.000000	-82.000000	0.327148	0.332031	0.336914	0.078125	0.000000	1.000000	0.000000	0.000000
8/25/2022	4:02:27 PM	99132.000000	165368.000000	34608.000000	63140.000000	30928.000000	62890.000000	50627.000000	114800.000000	1133.000000	-7330.000000	-3335.000000	30.000000	44.000000	-11.000000	-47.000000	-312.000000	-81.000000	0.371094	0.361328	0.361328	0.083008	0.000000	1.000000	0.000000	0.000000
8/25/2022	4:02:27 PM	99487.000000	165368.000000	34608.000000	63976.000000	31006.000000	62466.000000	50789.000000	113164.000000	1195.000000	-7397.000000	-3361.000000	31.000000	34.000000	2.000000	-59.000000	-308.000000	-79.000000	0.322266	0.361328	0.351562	0.078125	0.000000	1.000000	0.000000	0.000000
8/25/2022	4:02:27 PM	99844.000000	165368.000000	34748.000000	63104.000000	30783.000000	62606.000000	50466.000000	113976.000000	1142.000000	-7381.000000	-3367.000000	27.000000	-8.000000	10.000000	-54.000000	-310.000000	-80.000000	0.332031	0.327148	0.312500	0.068359	0.000000	1.000000	0.000000	0.000000
8/25/2022	4:02:27 PM	100567.000000	165368.000000	34554.000000	62890.000000	30860.000000	62466.000000	50466.000000	112590.000000	1131.000000	-7440.000000	-3307.000000	75.000000	22.000000	-16.000000	-50.000000	-315.000000	-80.000000	0.312500	0.312500	0.327148	0.048828	0.000000	1.000000	0.000000	0.000000
8/25/2022	4:02:27 PM	100658.000000	166358.000000	34629.000000	63392.000000	30791.000000	62326.000000	50375.000000	113164.000000	1098.000000	-7391.000000	-3315.000000	23.000000	61.000000	11.000000	-47.000000	-311.000000	-84.000000	0.390625	0.361328	0.346680	0.068359	0.000000	1.000000	0.000000	0.000000
8/25/2022	4:02:27 PM	100750.000000	166358.000000	34792.000000	63176.000000	30647.000000	62677.000000	50192.000000	112249.000000	1116.000000	-7400.000000	-3332.000000	41.000000	-2.000000	3.000000	-50.000000	-308.000000	-86.000000	0.405273	0.385742	0.371094	0.068359	0.000000	1.000000	0.000000	0.000000
8/25/2022	4:02:27 PM	100204.000000	166607.000000	34554.000000	62606.000000	30454.000000	62221.000000	49944.000000	112705.000000	1106.000000	-7399.000000	-3350.000000	32.000000	28.000000	-34.000000	-53.000000	-311.000000	-84.000000	0.356445	0.361328	0.361328	0.063477	0.000000	1.000000	0.000000	0.000000
8/25/2022	4:02:27 PM	100295.000000	166358.000000	34404.000000	62571.000000	30487.000000	62256.000000	50012.000000	112136.000000	1238.000000	-7386.000000	-3350.000000	37.000000	-29.000000	-5.000000	-54.000000	-315.000000	-80.000000	0.410156	0.366211	0.336914	0.087891	0.000000	1.000000	0.000000	0.000000
8/25/2022	4:02:27 PM	100114.000000	166857.000000	34586.000000	61806.000000	30723.000000	62819.000000	50420.000000	110136.000000	1173.000000	-7357.000000	-3328.000000	27.000000	71.000000	1.000000	-54.000000	-318.000000	-76.000000	0.419922	0.356445	0.366211	0.068359	0.000000	0.000000	0.000000	0.000000
8/25/2022	4:02:27 PM	99934.000000	167108.000000	34415.000000	62082.000000	30672.000000	62466.000000	49967.000000	112705.000000	1143.000000	-7398.000000	-3290.000000	63.000000	5.000000	10.000000	-51.000000	-320.000000	-79.000000	0.371094	0.356445	0.341797	0.073242	0.000000	0.000000	0.000000	0.000000
8/25/2022	4:02:27 PM	100204.000000	166607.000000	34490.000000	61874.000000	30681.000000	62606.000000	49788.000000	112477.000000	1095.000000	-7387.000000	-3317.000000	15.000000	54.000000	-8.000000	-51.000000	-313.000000	-82.000000	0.327148	0.351562	0.361328	0.092773	0.000000	0.000000	0.000000	0.000000
8/25/2022	4:02:27 PM	98779.000000	166358.000000	34662.000000	62571.000000	30749.000000	61668.000000	49967.000000	112705.000000	1140.000000	-7395.000000	-3329.000000	48.000000	-2.000000	-13.000000	-47.000000	-306.000000	-78.000000	0.371094	0.366211	0.390625	0.087891	0.000000	0.000000	0.000000	0.000000
8/25/2022	4:02:27 PM	99398.000000	165861.000000	34683.000000	62013.000000	30613.000000	61978.000000	49967.000000	112934.000000	1115.000000	-7382.000000	-3350.000000	39.000000	34.000000	-14.000000	-46.000000	-303.000000	-75.000000	0.498047	0.419922	0.415039	0.083008	0.000000	0.000000	0.000000	0.000000
8/25/2022	4:02:28 PM	99398.000000	166109.000000	34651.000000	62013.000000	30630.000000	61771.000000	50261.000000	113859.000000	1144.000000	-7446.000000	-3394.000000	67.000000	29.000000	-8.000000	-50.000000	-309.000000	-84.000000	0.385742	0.380859	0.385742	0.068359	0.000000	0.000000	0.000000	0.000000
8/25/2022	4:02:28 PM	99665.000000	165861.000000	34511.000000	61874.000000	30740.000000	61328.000000	50170.000000	112934.000000	1172.000000	-7394.000000	-3317.000000	75.000000	36.000000	-32.000000	-46.000000	-314.000000	-92.000000	0.366211	0.380859	0.371094	0.112305	0.000000	0.000000	0.000000	0.000000
8/25/2022	4:02:28 PM	99398.000000	167108.000000	34586.000000	61874.000000	30817.000000	62221.000000	50375.000000	112249.000000	1175.000000	-7429.000000	-3262.000000	40.000000	19.000000	6.000000	-45.000000	-314.000000	-84.000000	0.429687	0.410156	0.390625	0.117187	0.000000	0.000000	0.000000	0.000000
8/25/2022	4:02:28 PM	100567.000000	166358.000000	34490.000000	62360.000000	30638.000000	61874.000000	50420.000000	112023.000000	1077.000000	-7366.000000	-3235.000000	41.000000	28.000000	-19.000000	-45.000000	-315.000000	-79.000000	0.356445	0.361328	0.385742	0.102539	0.000000	0.000000	0.000000	0.000000
8/25/2022	4:02:28 PM	100024.000000	166109.000000	34683.000000	62431.000000	30588.000000	61978.000000	50125.000000	112249.000000	1192.000000	-7393.000000	-3334.000000	12.000000	10.000000	-8.000000	-51.000000	-312.000000	-82.000000	0.336914	0.332031	0.356445	0.083008	0.000000	0.000000	0.000000	0.000000
8/25/2022	4:02:28 PM	100204.000000	166857.000000	34554.000000	62291.000000	30715.000000	62221.000000	50329.000000	111685.000000	1145.000000	-7408.000000	-3356.000000	9.000000	33.000000	2.000000	-56.000000	-309.000000	-79.000000	0.463867	0.424805	0.410156	0.087891	0.000000	0.000000	0.000000	0.000000
8/25/2022	4:02:28 PM	99844.000000	166857.000000	34415.000000	62116.000000	30774.000000	62047.000000	50261.000000	112249.000000	1116.000000	-7423.000000	-3314.000000	61.000000	6.000000	2.000000	-53.000000	-308.000000	-79.000000	0.336914	0.351562	0.366211	0.073242	0.000000	0.000000	0.000000	0.000000
8/25/2022	4:02:28 PM	99665.000000	166607.000000	34554.000000	61703.000000	31006.000000	61703.000000	50170.000000	113395.000000	1131.000000	-7426.000000	-3262.000000	6.000000	48.000000	-12.000000	-46.000000	-312.000000	-78.000000	0.346680	0.366211	0.356445	0.073242	0.000000	0.000000	0.000000	0.000000
8/25/2022	4:02:28 PM	100204.000000	165861.000000	34426.000000	61532.000000	31445.000000	61909.000000	50215.000000	111685.000000	1094.000000	-7408.000000	-3268.000000	49.000000	50.000000	-61.000000	-43.000000	-314.000000	-80.000000	0.224609	0.312500	0.317383	0.048828	0.000000	0.000000	0.000000	0.000000
8/25/2022	4:02:28 PM	100658.000000	166358.000000	34004.000000	62186.000000	32220.000000	61430.000000	49788.000000	112477.000000	1186.000000	-7391.000000	-3217.000000	-59.000000	48.000000	-17.000000	-42.000000	-304.000000	-75.000000	0.190430	0.268555	0.297852	0.039062	0.000000	0.000000	0.000000	0.000000
8/25/2022	4:02:28 PM	101024.000000	163663.000000	34193.000000	61668.000000	32936.000000	61668.000000	48590.000000	114446.000000	1210.000000	-7515.000000	-3148.000000	-46.000000	11.000000	-30.000000	-44.000000	-303.000000	-70.000000	0.146484	0.244141	0.297852	0.039062	0.000000	0.000000	0.000000	0.000000
8/25/2022	4:02:28 PM	101116.000000	160125.000000	34171.000000	62677.000000	35044.000000	61771.000000	49810.000000	116853.000000	1181.000000	-7608.000000	-3243.000000	-2.000000	176.000000	-200.000000	-45.000000	-309.000000	-75.000000	0.136719	0.249023	0.317383	0.034180	0.000000	0.000000	0.000000	0.000000
8/25/2022	4:02:28 PM	102045.000000	157851.000000	35390.000000	62571.000000	36316.000000	64198.000000	50999.000000	123200.000000	1326.000000	-7288.000000	-3237.000000	13.000000	194.000000	-225.000000	-43.000000	-308.000000	-75.000000	0.122070	0.224609	0.288086	0.039062	0.000000	0.000000	0.000000	0.000000
8/25/2022	4:02:28 PM	105234.000000	166857.000000	35743.000000	63792.000000	36292.000000	66944.000000	51519.000000	129821.000000	1358.000000	-7441.000000	-3060.000000	-295.000000	134.000000	-65.000000	-44.000000	-305.000000	-70.000000	0.161133	0.244141	0.307617	0.039062	0.000000	0.000000	0.000000	0.000000
8/25/2022	4:02:28 PM	106443.000000	169401.000000	35893.000000	64161.000000	36870.000000	66863.000000	51855.000000	131823.000000	1513.000000	-7346.000000	-3446.000000	-240.000000	32.000000	-150.000000	-44.000000	-310.000000	-73.000000	0.141602	0.239258	0.297852	0.034180	0.000000	0.000000	0.000000	0.000000
8/25/2022	4:02:28 PM	108522.000000	173095.000000	36651.000000	65024.000000	37328.000000	70200.000000	53044.000000	134536.000000	1564.000000	-7012.000000	-3384.000000	-192.000000	-162.000000	-21.000000	-46.000000	-313.000000	-78.000000	0.136719	0.239258	0.307617	0.034180	0.000000	0.000000	0.000000	0.000000
8/25/2022	4:02:28 PM	110684.000000	175556.000000	36772.000000	65445.000000	37404.000000	70333.000000	52968.000000	133727.000000	1462.000000	-7250.000000	-3474.000000	-541.000000	78.000000	85.000000	-48.000000	-315.000000	-72.000000	0.190430	0.258789	0.317383	0.048828	0.000000	0.000000	0.000000	0.000000
8/25/2022	4:02:28 PM	110354.000000	175556.000000	36919.000000	65872.000000	37203.000000	71834.000000	53736.000000	134863.000000	1294.000000	-7213.000000	-3664.000000	-317.000000	-7.000000	78.000000	-47.000000	-314.000000	-71.000000	0.156250	0.253906	0.302734	0.043945	0.000000	0.000000	0.000000	0.000000
8/25/2022	4:02:28 PM	110794.000000	172023.000000	37454.000000	65678.000000	37429.000000	71235.000000	54234.000000	133086.000000	1202.000000	-7059.000000	-3692.000000	-345.000000	-14.000000	73.000000	-43.000000	-310.000000	-71.000000	0.151367	0.234375	0.297852	0.048828	0.000000	0.000000	0.000000	0.000000
8/25/2022	4:02:28 PM	109701.000000	175003.000000	37454.000000	65950.000000	37992.000000	72822.000000	54394.000000	133086.000000	1181.000000	-7101.000000	-3750.000000	-436.000000	-35.000000	52.000000	-42.000000	-312.000000	-67.000000	0.185547	0.244141	0.292969	0.053711	0.000000	0.000000	0.000000	0.000000
8/25/2022	4:02:29 PM	110905.000000	172290.000000	38083.000000	66265.000000	38044.000000	73740.000000	53919.000000	133727.000000	1114.000000	-7068.000000	-3973.000000	-395.000000	-162.000000	-27.000000	-42.000000	-318.000000	-70.000000	0.170898	0.244141	0.302734	0.053711	0.000000	0.000000	0.000000	0.000000
8/25/2022	4:02:29 PM	112705.000000	174180.000000	38057.000000	66107.000000	37416.000000	74084.000000	54500.000000	133246.000000	1199.000000	-6952.000000	-4053.000000	-362.000000	-159.000000	-24.000000	-42.000000	-319.000000	-66.000000	0.170898	0.239258	0.288086	0.039062	0.000000	0.000000	0.000000	0.000000
8/25/2022	4:02:29 PM	112477.000000	177519.000000	37940.000000	65330.000000	37191.000000	73302.000000	55259.000000	133086.000000	1316.000000	-6915.000000	-4254.000000	-425.000000	-119.000000	-47.000000	-49.000000	-320.000000	-65.000000	0.170898	0.258789	0.312500	0.048828	0.000000	0.000000	0.000000	0.000000
8/25/2022	4:02:29 PM	112136.000000	175556.000000	37734.000000	66984.000000	37644.000000	73740.000000	55013.000000	132137.000000	1188.000000	-6883.000000	-4216.000000	-368.000000	-44.000000	-27.000000	-51.000000	-325.000000	-74.000000	0.195312	0.249023	0.302734	0.053711	0.000000	0.000000	0.000000	0.000000
8/25/2022	4:02:29 PM	114919.000000	176112.000000	38346.000000	65639.000000	37341.000000	73206.000000	54904.000000	133406.000000	1326.000000	-6711.000000	-4159.000000	-407.000000	-89.000000	-22.000000	-45.000000	-323.000000	-71.000000	0.205078	0.253906	0.302734	0.063477	0.000000	0.000000	0.000000	0.000000
8/25/2022	4:02:29 PM	115396.000000	177236.000000	38399.000000	64721.000000	38161.000000	74233.000000	54688.000000	132768.000000	1195.000000	-6738.000000	-4411.000000	-510.000000	11.000000	-53.000000	-40.000000	-319.000000	-67.000000	0.180664	0.239258	0.297852	0.053711	0.000000	0.000000	0.000000	0.000000
8/25/2022	4:02:29 PM	115516.000000	177803.000000	38372.000000	65215.000000	37683.000000	73158.000000	54581.000000	133888.000000	1208.000000	-6634.000000	-4680.000000	-464.000000	-69.000000	-24.000000	-43.000000	-318.000000	-71.000000	0.166016	0.234375	0.302734	0.043945	0.000000	0.000000	0.000000	0.000000
8/25/2022	4:02:29 PM	115038.000000	176954.000000	38201.000000	65794.000000	37303.000000	72966.000000	54796.000000	132927.000000	1249.000000	-6583.000000	-4839.000000	-408.000000	-103.000000	-60.000000	-43.000000	-316.000000	-64.000000	0.151367	0.229492	0.288086	0.043945	0.000000	0.000000	0.000000	0.000000
8/25/2022	4:02:29 PM	114328.000000	177519.000000	37979.000000	65407.000000	36993.000000	73158.000000	54634.000000	132927.000000	1232.000000	-6454.000000	-4951.000000	-327.000000	-87.000000	-84.000000	-37.000000	-320.000000	-57.000000	0.166016	0.253906	0.297852	0.039062	0.000000	0.000000	0.000000	0.000000
8/25/2022	4:02:29 PM	115277.000000	176112.000000	38057.000000	65990.000000	36663.000000	72537.000000	54367.000000	132294.000000	1340.000000	-6446.000000	-5031.000000	-260.000000	-130.000000	-69.000000	-35.000000	-328.000000	-66.000000	0.146484	0.249023	0.292969	0.039062	0.000000	0.000000	0.000000	0.000000
8/25/2022	4:02:29 PM	113627.000000	176672.000000	38031.000000	65872.000000	36870.000000	72207.000000	54527.000000	132610.000000	1247.000000	-6424.000000	-5015.000000	-205.000000	-20.000000	-40.000000	-41.000000	-334.000000	-75.000000	0.175781	0.258789	0.297852	0.039062	0.000000	0.000000	0.000000	0.000000
8/25/2022	4:02:29 PM	113859.000000	176392.000000	38161.000000	66186.000000	36483.000000	72113.000000	54500.000000	131201.000000	1255.000000	-6402.000000	-5055.000000	-137.000000	4.000000	-36.000000	-40.000000	-329.000000	-76.000000	0.166016	0.268555	0.297852	0.039062	0.000000	0.000000	0.000000	0.000000
8/25/2022	4:02:29 PM	114210.000000	176672.000000	38018.000000	66226.000000	36150.000000	72442.000000	54850.000000	132294.000000	1320.000000	-6358.000000	-5093.000000	-99.000000	33.000000	-12.000000	-33.000000	-322.000000	-75.000000	0.156250	0.244141	0.292969	0.039062	0.000000	0.000000	0.000000	0.000000
8/25/2022	4:02:29 PM	115038.000000	176392.000000	37992.000000	66743.000000	36221.000000	72822.000000	54823.000000	133888.000000	1197.000000	-6390.000000	-5115.000000	-39.000000	46.000000	-17.000000	-36.000000	-323.000000	-69.000000	0.136719	0.239258	0.292969	0.029297	0.000000	0.000000	0.000000	0.000000
8/25/2022	4:02:29 PM	114210.000000	174180.000000	38070.000000	66583.000000	36351.000000	72207.000000	55177.000000	133086.000000	1285.000000	-6349.000000	-5086.000000	47.000000	-37.000000	-4.000000	-37.000000	-325.000000	-67.000000	0.156250	0.249023	0.283203	0.043945	0.000000	0.000000	0.000000	0.000000
8/25/2022	4:02:29 PM	115157.000000	175279.000000	38083.000000	66147.000000	36316.000000	72774.000000	54634.000000	133888.000000	1284.000000	-6336.000000	-5011.000000	48.000000	4.000000	-3.000000	-38.000000	-324.000000	-60.000000	0.136719	0.249023	0.292969	0.039062	0.000000	0.000000	0.000000	0.000000
8/25/2022	4:02:29 PM	114210.000000	175556.000000	38044.000000	66463.000000	36127.000000	72301.000000	55068.000000	133727.000000	1244.000000	-6366.000000	-4949.000000	51.000000	49.000000	-6.000000	-44.000000	-323.000000	-56.000000	0.117187	0.239258	0.288086	0.039062	0.000000	0.000000	0.000000	0.000000
8/25/2022	4:02:29 PM	114210.000000	175834.000000	38057.000000	66743.000000	36056.000000	72020.000000	54688.000000	133406.000000	1188.000000	-6396.000000	-4946.000000	38.000000	63.000000	4.000000	-47.000000	-330.000000	-61.000000	0.102539	0.239258	0.283203	0.039062	0.000000	0.000000	0.000000	0.000000
8/25/2022	4:02:29 PM	113976.000000	174728.000000	38031.000000	66743.000000	35940.000000	71695.000000	54287.000000	132452.000000	1209.000000	-6369.000000	-4925.000000	71.000000	15.000000	-14.000000	-44.000000	-333.000000	-63.000000	0.126953	0.263672	0.278320	0.048828	0.000000	0.000000	0.000000	0.000000
8/25/2022	4:02:29 PM	114919.000000	174180.000000	38240.000000	66944.000000	36209.000000	71556.000000	54850.000000	134536.000000	1210.000000	-6411.000000	-4931.000000	55.000000	23.000000	-12.000000	-44.000000	-332.000000	-70.000000	0.136719	0.273437	0.278320	0.043945	0.000000	0.000000	0.000000	0.000000
8/25/2022	4:02:30 PM	115277.000000	175556.000000	38306.000000	67472.000000	36304.000000	71556.000000	54796.000000	133888.000000	1258.000000	-6364.000000	-4917.000000	62.000000	22.000000	-4.000000	-43.000000	-329.000000	-70.000000	0.156250	0.273437	0.288086	0.043945	0.000000	0.000000	0.000000	0.000000
8/25/2022	4:02:30 PM	114919.000000	174180.000000	38385.000000	66663.000000	36387.000000	71741.000000	54314.000000	133566.000000	1251.000000	-6379.000000	-4930.000000	57.000000	55.000000	-24.000000	-40.000000	-331.000000	-62.000000	0.151367	0.263672	0.288086	0.048828	0.000000	0.000000	0.000000	0.000000
8/25/2022	4:02:30 PM	115999.000000	176954.000000	38253.000000	66186.000000	36268.000000	71602.000000	54769.000000	134699.000000	1323.000000	-6374.000000	-4985.000000	58.000000	39.000000	-3.000000	-37.000000	-328.000000	-64.000000	0.170898	0.268555	0.273437	0.043945	0.000000	0.000000	0.000000	0.000000
8/25/2022	4:02:30 PM	115038.000000	176954.000000	38425.000000	67268.000000	35986.000000	71648.000000	54823.000000	133888.000000	1312.000000	-6378.000000	-4935.000000	84.000000	-5.000000	5.000000	-37.000000	-323.000000	-65.000000	0.166016	0.292969	0.283203	0.039062	0.000000	0.000000	0.000000	0.000000
8/25/2022	4:02:30 PM	115396.000000	177519.000000	38372.000000	66423.000000	36221.000000	70512.000000	55040.000000	134374.000000	1258.000000	-6425.000000	-4938.000000	47.000000	31.000000	14.000000	-36.000000	-330.000000	-64.000000	0.195312	0.288086	0.278320	0.043945	0.000000	0.000000	0.000000	0.000000
8/25/2022	4:02:30 PM	115396.000000	180989.000000	38559.000000	66823.000000	36056.000000	71053.000000	55122.000000	135027.000000	1238.000000	-6421.000000	-4911.000000	91.000000	9.000000	10.000000	-36.000000	-325.000000	-67.000000	0.161133	0.288086	0.273437	0.034180	0.000000	0.000000	0.000000	0.000000
8/25/2022	4:02:30 PM	115038.000000	181284.000000	38639.000000	66703.000000	36268.000000	71235.000000	54986.000000	134049.000000	1201.000000	-6445.000000	-4858.000000	69.000000	47.000000	17.000000	-42.000000	-328.000000	-61.000000	0.156250	0.297852	0.297852	0.039062	0.000000	0.000000	0.000000	0.000000
8/25/2022	4:02:30 PM	114093.000000	179527.000000	38639.000000	66423.000000	35778.000000	71098.000000	55369.000000	133566.000000	1131.000000	-6410.000000	-4812.000000	69.000000	23.000000	-8.000000	-38.000000	-331.000000	-57.000000	0.166016	0.312500	0.278320	0.043945	0.000000	0.000000	0.000000	0.000000
8/25/2022	4:02:30 PM	113976.000000	179237.000000	38532.000000	67105.000000	35537.000000	70512.000000	54959.000000	133888.000000	1261.000000	-6446.000000	-4860.000000	29.000000	-1.000000	-27.000000	-41.000000	-330.000000	-57.000000	0.141602	0.317383	0.278320	0.043945	0.000000	0.000000	0.000000	0.000000
8/25/2022	4:02:30 PM	114800.000000	179237.000000	38319.000000	66384.000000	35882.000000	70378.000000	55013.000000	134049.000000	1284.000000	-6425.000000	-4897.000000	43.000000	12.000000	-14.000000	-44.000000	-327.000000	-60.000000	0.141602	0.332031	0.288086	0.039062	0.000000	0.000000	0.000000	0.000000
8/25/2022	4:02:30 PM	114919.000000	180989.000000	38070.000000	66226.000000	35766.000000	71372.000000	54287.000000	134049.000000	1237.000000	-6417.000000	-4910.000000	28.000000	50.000000	-9.000000	-38.000000	-328.000000	-67.000000	0.122070	0.317383	0.292969	0.039062	0.000000	0.000000	0.000000	0.000000
8/25/2022	4:02:30 PM	115277.000000	178374.000000	38174.000000	66029.000000	35458.000000	70512.000000	54688.000000	134536.000000	1212.000000	-6448.000000	-4879.000000	45.000000	33.000000	-3.000000	-35.000000	-327.000000	-65.000000	0.117187	0.332031	0.278320	0.029297	0.000000	0.000000	0.000000	0.000000
8/25/2022	4:02:30 PM	115516.000000	179817.000000	38201.000000	66344.000000	35572.000000	70646.000000	54850.000000	132927.000000	1247.000000	-6423.000000	-4856.000000	54.000000	9.000000	-7.000000	-41.000000	-322.000000	-62.000000	0.107422	0.336914	0.278320	0.039062	0.000000	0.000000	0.000000	0.000000
8/25/2022	4:02:30 PM	115157.000000	178661.000000	37953.000000	65833.000000	35413.000000	70691.000000	54474.000000	133246.000000	1178.000000	-6449.000000	-4864.000000	47.000000	56.000000	-23.000000	-44.000000	-323.000000	-66.000000	0.112305	0.361328	0.283203	0.034180	0.000000	0.000000	0.000000	0.000000
8/25/2022	4:02:30 PM	115757.000000	178088.000000	38109.000000	66226.000000	35402.000000	70601.000000	54261.000000	133406.000000	1321.000000	-6490.000000	-4843.000000	51.000000	23.000000	-42.000000	-36.000000	-330.000000	-66.000000	0.136719	0.351562	0.283203	0.039062	0.000000	0.000000	0.000000	0.000000
8/25/2022	4:02:30 PM	115999.000000	178661.000000	38266.000000	66068.000000	35233.000000	71372.000000	49900.000000	134536.000000	1285.000000	-6447.000000	-4824.000000	-31.000000	58.000000	-10.000000	-30.000000	-327.000000	-60.000000	0.170898	0.366211	0.307617	0.048828	0.000000	0.000000	0.000000	0.000000
8/25/2022	4:02:30 PM	114682.000000	180109.000000	38018.000000	65911.000000	35244.000000	71326.000000	51711.000000	132137.000000	1251.000000	-6317.000000	-4846.000000	46.000000	-4.000000	-25.000000	-31.000000	-324.000000	-63.000000	0.161133	0.346680	0.332031	0.058594	0.000000	0.000000	0.000000	0.000000
8/25/2022	4:02:30 PM	115038.000000	176672.000000	38201.000000	65990.000000	35334.000000	70333.000000	50789.000000	130584.000000	1352.000000	-6402.000000	-4899.000000	-66.000000	75.000000	33.000000	-36.000000	-327.000000	-65.000000	0.195312	0.371094	0.341797	0.048828	0.000000	0.000000	0.000000	0.000000
8/25/2022	4:02:30 PM	115157.000000	176954.000000	38018.000000	65024.000000	34533.000000	69803.000000	50766.000000	128322.000000	1153.000000	-6598.000000	-4945.000000	-193.000000	140.000000	45.000000	-35.000000	-324.000000	-59.000000	0.151367	0.366211	0.341797	0.048828	0.000000	0.000000	0.000000	0.000000
8/25/2022	4:02:30 PM	114564.000000	179527.000000	37888.000000	65407.000000	34738.000000	68134.000000	50397.000000	122792.000000	1448.000000	-5967.000000	-4894.000000	144.000000	-6.000000	98.000000	-35.000000	-324.000000	-54.000000	0.244141	0.449219	0.458984	0.078125	0.000000	0.000000	0.000000	0.000000
8/25/2022	4:02:31 PM	113511.000000	181877.000000	37543.000000	65369.000000	35233.000000	67227.000000	49765.000000	123474.000000	1226.000000	-6717.000000	-4874.000000	-489.000000	243.000000	126.000000	-38.000000	-323.000000	-61.000000	0.205078	0.512695	0.395508	0.063477	0.000000	0.000000	0.000000	0.000000
8/25/2022	4:02:31 PM	112023.000000	178948.000000	37005.000000	65445.000000	35870.000000	66384.000000	50329.000000	121318.000000	1256.000000	-6205.000000	-5071.000000	340.000000	176.000000	-12.000000	-36.000000	-327.000000	-60.000000	0.249023	0.429687	0.395508	0.053711	0.000000	0.000000	0.000000	0.000000
8/25/2022	4:02:31 PM	109701.000000	173908.000000	36233.000000	64910.000000	35166.000000	61600.000000	50420.000000	117719.000000	1306.000000	-6406.000000	-4935.000000	-106.000000	381.000000	-5.000000	-36.000000	-330.000000	-51.000000	0.244141	0.478516	0.385742	0.058594	0.000000	0.000000	0.000000	0.000000
8/25/2022	4:02:31 PM	108948.000000	174180.000000	36127.000000	65755.000000	35289.000000	60296.000000	50102.000000	114093.000000	1312.000000	-6363.000000	-4844.000000	72.000000	59.000000	21.000000	-34.000000	-321.000000	-50.000000	0.209961	0.415039	0.336914	0.053711	0.000000	0.000000	0.000000	0.000000
8/25/2022	4:02:31 PM	107369.000000	171228.000000	36080.000000	66186.000000	34716.000000	59299.000000	49367.000000	111910.000000	1431.000000	-6453.000000	-4933.000000	30.000000	-4.000000	-100.000000	-35.000000	-319.000000	-55.000000	0.317383	0.502930	0.424805	0.092773	0.000000	0.000000	0.000000	0.000000
8/25/2022	4:02:31 PM	104149.000000	168630.000000	35755.000000	65950.000000	34533.000000	59236.000000	49280.000000	114800.000000	1335.000000	-6327.000000	-4970.000000	55.000000	77.000000	23.000000	-42.000000	-332.000000	-54.000000	0.253906	0.415039	0.380859	0.083008	0.000000	0.000000	0.000000	0.000000
8/25/2022	4:02:31 PM	103182.000000	172023.000000	35766.000000	66107.000000	33482.000000	57668.000000	49214.000000	110027.000000	1447.000000	-6244.000000	-4874.000000	37.000000	54.000000	-12.000000	-44.000000	-329.000000	-46.000000	0.239258	0.375977	0.356445	0.063477	0.000000	0.000000	0.000000	0.000000
8/25/2022	4:02:31 PM	103663.000000	172023.000000	35144.000000	65445.000000	33132.000000	57311.000000	49171.000000	105234.000000	1440.000000	-6455.000000	-4937.000000	-16.000000	166.000000	16.000000	-37.000000	-323.000000	-52.000000	0.312500	0.463867	0.439453	0.083008	0.000000	0.000000	0.000000	0.000000
8/25/2022	4:02:31 PM	103857.000000	167866.000000	35278.000000	64759.000000	32742.000000	56324.000000	47328.000000	102705.000000	1309.000000	-6330.000000	-4944.000000	125.000000	110.000000	-87.000000	-31.000000	-325.000000	-55.000000	0.244141	0.375977	0.429687	0.107422	0.000000	0.000000	0.000000	0.000000
8/25/2022	4:02:31 PM	102421.000000	166607.000000	35044.000000	64235.000000	32598.000000	57608.000000	47694.000000	101208.000000	1466.000000	-6231.000000	-5003.000000	81.000000	95.000000	31.000000	-40.000000	-328.000000	-49.000000	0.312500	0.380859	0.449219	0.097656	0.000000	0.000000	0.000000	0.000000
8/25/2022	4:02:31 PM	101116.000000	166109.000000	34662.000000	63033.000000	32665.000000	57668.000000	47147.000000	101208.000000	1498.000000	-6295.000000	-4944.000000	-21.000000	73.000000	58.000000	-42.000000	-324.000000	-50.000000	0.278320	0.336914	0.434570	0.097656	0.000000	0.000000	0.000000	0.000000
8/25/2022	4:02:31 PM	98955.000000	166109.000000	34511.000000	62890.000000	32370.000000	57489.000000	47047.000000	101024.000000	1347.000000	-6369.000000	-4939.000000	9.000000	-20.000000	97.000000	-46.000000	-325.000000	-60.000000	0.375977	0.468750	0.620117	0.161133	0.000000	0.000000	0.000000	0.000000
8/25/2022	4:02:31 PM	99043.000000	166358.000000	34404.000000	63104.000000	32145.000000	56959.000000	46889.000000	101951.000000	1448.000000	-6654.000000	-5138.000000	278.000000	184.000000	-179.000000	-50.000000	-330.000000	-52.000000	0.439453	0.454102	0.522461	0.161133	0.000000	0.000000	0.000000	0.000000
8/25/2022	4:02:31 PM	98517.000000	166857.000000	34511.000000	63068.000000	31933.000000	57282.000000	46810.000000	99132.000000	1503.000000	-6273.000000	-4783.000000	318.000000	274.000000	-41.000000	-42.000000	-322.000000	-40.000000	0.356445	0.395508	0.449219	0.136719	0.000000	0.000000	0.000000	0.000000
8/25/2022	4:02:31 PM	99132.000000	168630.000000	34383.000000	63104.000000	31750.000000	57668.000000	46283.000000	98082.000000	1488.000000	-6547.000000	-4672.000000	1.000000	331.000000	-16.000000	-43.000000	-321.000000	-41.000000	0.429687	0.415039	0.458984	0.151367	0.000000	0.000000	0.000000	0.000000
8/25/2022	4:02:31 PM	100841.000000	167866.000000	34447.000000	62783.000000	31588.000000	57908.000000	45469.000000	97139.000000	1551.000000	-6378.000000	-4637.000000	221.000000	-139.000000	11.000000	-42.000000	-325.000000	-42.000000	0.356445	0.356445	0.395508	0.112305	0.000000	0.000000	0.000000	0.000000
8/25/2022	4:02:31 PM	97823.000000	166857.000000	34383.000000	62642.000000	31869.000000	56467.000000	45844.000000	98604.000000	1473.000000	-6604.000000	-4708.000000	137.000000	68.000000	-191.000000	-35.000000	-329.000000	-47.000000	0.375977	0.390625	0.449219	0.175781	0.000000	0.000000	0.000000	0.000000
8/25/2022	4:02:31 PM	96548.000000	166857.000000	34025.000000	62256.000000	31732.000000	57134.000000	44291.000000	95964.000000	1603.000000	-6529.000000	-4610.000000	299.000000	117.000000	-223.000000	-36.000000	-327.000000	-54.000000	0.371094	0.351562	0.434570	0.136719	0.000000	0.000000	0.000000	0.000000
8/25/2022	4:02:31 PM	98168.000000	164633.000000	34214.000000	61634.000000	31660.000000	56959.000000	43958.000000	94980.000000	1635.000000	-6315.000000	-4777.000000	264.000000	57.000000	-104.000000	-43.000000	-318.000000	-54.000000	0.385742	0.361328	0.439453	0.131836	0.000000	0.000000	0.000000	0.000000
8/25/2022	4:02:31 PM	97823.000000	164877.000000	34340.000000	60526.000000	31498.000000	56988.000000	43682.000000	93305.000000	1636.000000	-6395.000000	-4622.000000	-108.000000	-73.000000	72.000000	-53.000000	-320.000000	-61.000000	0.332031	0.307617	0.361328	0.102539	0.000000	0.000000	0.000000	0.000000
8/25/2022	4:02:32 PM	97054.000000	166358.000000	34426.000000	60036.000000	31624.000000	56324.000000	44080.000000	91162.000000	1661.000000	-6637.000000	-4550.000000	35.000000	-271.000000	-12.000000	-46.000000	-331.000000	-56.000000	0.361328	0.341797	0.341797	0.102539	0.000000	0.000000	0.000000	0.000000
8/25/2022	4:02:32 PM	96885.000000	168886.000000	34266.000000	60526.000000	31777.000000	55535.000000	43579.000000	91162.000000	1446.000000	-6280.000000	-4711.000000	190.000000	-70.000000	-71.000000	-49.000000	-330.000000	-53.000000	0.307617	0.327148	0.341797	0.092773	0.000000	0.000000	0.000000	0.000000
8/25/2022	4:02:32 PM	98255.000000	167866.000000	34543.000000	60692.000000	31570.000000	56381.000000	44098.000000	91462.000000	1557.000000	-6601.000000	-4686.000000	-3.000000	96.000000	-4.000000	-51.000000	-324.000000	-61.000000	0.278320	0.312500	0.317383	0.078125	0.000000	0.000000	0.000000	0.000000
8/25/2022	4:02:32 PM	98692.000000	168886.000000	34629.000000	60329.000000	31445.000000	56096.000000	44540.000000	92683.000000	1543.000000	-6561.000000	-4557.000000	43.000000	87.000000	55.000000	-47.000000	-323.000000	-65.000000	0.307617	0.346680	0.317383	0.073242	0.000000	0.000000	0.000000	0.000000
8/25/2022	4:02:32 PM	98517.000000	169919.000000	34436.000000	59810.000000	31224.000000	56438.000000	44791.000000	90642.000000	1419.000000	-6522.000000	-4727.000000	-89.000000	13.000000	118.000000	-44.000000	-321.000000	-63.000000	0.322266	0.385742	0.371094	0.102539	0.000000	0.000000	0.000000	0.000000
8/25/2022	4:02:32 PM	98255.000000	169919.000000	34436.000000	59489.000000	31023.000000	56668.000000	44701.000000	89908.000000	1570.000000	-6767.000000	-4714.000000	97.000000	-90.000000	-28.000000	-50.000000	-327.000000	-59.000000	0.292969	0.380859	0.449219	0.092773	0.000000	0.000000	0.000000	0.000000
8/25/2022	4:02:32 PM	97737.000000	167108.000000	34372.000000	59777.000000	30825.000000	56668.000000	44629.000000	89115.000000	1497.000000	-6372.000000	-4782.000000	112.000000	37.000000	-20.000000	-47.000000	-322.000000	-60.000000	0.312500	0.410156	0.439453	0.102539	0.000000	0.000000	0.000000	0.000000
8/25/2022	4:02:32 PM	97394.000000	167612.000000	34203.000000	59971.000000	30980.000000	57076.000000	44575.000000	89474.000000	1610.000000	-6630.000000	-4617.000000	24.000000	58.000000	71.000000	-46.000000	-319.000000	-65.000000	0.327148	0.375977	0.375977	0.073242	0.000000	0.000000	0.000000	0.000000
8/25/2022	4:02:32 PM	97054.000000	167108.000000	33994.000000	60133.000000	30989.000000	57105.000000	44063.000000	91087.000000	1431.000000	-6541.000000	-4603.000000	60.000000	72.000000	17.000000	-42.000000	-318.000000	-69.000000	0.234375	0.307617	0.366211	0.068359	0.000000	0.000000	0.000000	0.000000
8/25/2022	4:02:32 PM	97139.000000	166607.000000	34203.000000	59521.000000	30963.000000	56755.000000	44150.000000	89763.000000	1374.000000	-6666.000000	-4526.000000	-35.000000	-58.000000	-34.000000	-32.000000	-319.000000	-67.000000	0.214844	0.341797	0.366211	0.083008	0.000000	0.000000	0.000000	0.000000
8/25/2022	4:02:32 PM	96885.000000	165614.000000	34035.000000	59713.000000	30638.000000	57017.000000	44133.000000	90127.000000	1356.000000	-6541.000000	-4682.000000	77.000000	-1.000000	-29.000000	-42.000000	-319.000000	-63.000000	0.258789	0.395508	0.400391	0.102539	0.000000	0.000000	0.000000	0.000000
8/25/2022	4:02:32 PM	98168.000000	165614.000000	33767.000000	59016.000000	30783.000000	57252.000000	43993.000000	90200.000000	1540.000000	-6495.000000	-4646.000000	119.000000	-14.000000	-28.000000	-44.000000	-318.000000	-56.000000	0.234375	0.366211	0.341797	0.063477	0.000000	0.000000	0.000000	0.000000
8/25/2022	4:02:32 PM	98955.000000	167108.000000	33736.000000	58457.000000	30613.000000	57311.000000	44203.000000	88973.000000	1549.000000	-6736.000000	-4566.000000	-62.000000	145.000000	26.000000	-40.000000	-318.000000	-57.000000	0.258789	0.385742	0.390625	0.078125	0.000000	0.000000	0.000000	0.000000
8/25/2022	4:02:32 PM	98779.000000	165614.000000	33777.000000	59078.000000	30470.000000	57105.000000	43647.000000	89187.000000	1444.000000	-6443.000000	-4670.000000	56.000000	-48.000000	-32.000000	-41.000000	-321.000000	-59.000000	0.200195	0.332031	0.336914	0.053711	0.000000	0.000000	0.000000	0.000000
8/25/2022	4:02:32 PM	98082.000000	164389.000000	34046.000000	59585.000000	30613.000000	57370.000000	43941.000000	89908.000000	1386.000000	-6685.000000	-4490.000000	-122.000000	-10.000000	54.000000	-40.000000	-328.000000	-56.000000	0.268555	0.351562	0.371094	0.058594	0.000000	0.000000	0.000000	0.000000
