Date	Time	FMG1	FMG2	FMG3	FMG4	FMG5	FMG6	FMG7	FMG8	IMU1	IMU2	IMU3	IMU4	IMU5	IMU6	IMU7	IMU8	IMU9	EMG1	EMG2	EMG3	EMG4	TTL1	TTL2	TTL3	TTL4							
8/25/2022	3:52:16 PM	118979.000000	186142.000000	42431.000000	66226.000000	36919.000000	79890.000000	54877.000000	107577.000000	-386.000000	-7523.000000	-3139.000000	137.000000	-72.000000	-50.000000	-31.000000	-333.000000	-68.000000	0.112305	0.371094	0.263672	0.112305	1.000000	1.000000	1.000000	0.000000
8/25/2022	3:52:16 PM	119107.000000	187082.000000	42807.000000	65911.000000	36943.000000	79319.000000	55232.000000	105734.000000	-193.000000	-7585.000000	-3100.000000	86.000000	-86.000000	-250.000000	-24.000000	-337.000000	-66.000000	0.112305	0.361328	0.263672	0.126953	1.000000	1.000000	1.000000	0.000000
8/25/2022	3:52:16 PM	117470.000000	186455.000000	42237.000000	65215.000000	36907.000000	79263.000000	54850.000000	106240.000000	145.000000	-7531.000000	-3133.000000	30.000000	-130.000000	-380.000000	-26.000000	-339.000000	-68.000000	0.126953	0.336914	0.258789	0.131836	1.000000	1.000000	1.000000	0.000000
8/25/2022	3:52:16 PM	117969.000000	185831.000000	42350.000000	65523.000000	36809.000000	79263.000000	55563.000000	103760.000000	246.000000	-7526.000000	-3156.000000	-12.000000	35.000000	-458.000000	-23.000000	-334.000000	-70.000000	0.126953	0.332031	0.263672	0.112305	1.000000	1.000000	1.000000	0.000000
8/25/2022	3:52:16 PM	117346.000000	185521.000000	42398.000000	65678.000000	36736.000000	79661.000000	55342.000000	103566.000000	544.000000	-7425.000000	-3262.000000	-36.000000	0.000000	-519.000000	-22.000000	-329.000000	-71.000000	0.117187	0.317383	0.258789	0.122070	1.000000	1.000000	1.000000	0.000000
8/25/2022	3:52:16 PM	117844.000000	185212.000000	42045.000000	65872.000000	37153.000000	79319.000000	55259.000000	104442.000000	862.000000	-7440.000000	-3299.000000	-48.000000	-81.000000	-535.000000	-27.000000	-326.000000	-72.000000	0.112305	0.302734	0.263672	0.122070	1.000000	1.000000	1.000000	0.000000
8/25/2022	3:52:16 PM	117969.000000	185521.000000	41966.000000	66583.000000	37116.000000	79604.000000	55314.000000	105035.000000	1215.000000	-7414.000000	-3401.000000	-25.000000	-176.000000	-400.000000	-27.000000	-328.000000	-79.000000	0.122070	0.273437	0.263672	0.117187	1.000000	1.000000	1.000000	0.000000
8/25/2022	3:52:16 PM	117099.000000	185521.000000	42205.000000	66543.000000	36821.000000	78925.000000	55480.000000	103954.000000	1285.000000	-7378.000000	-3365.000000	-24.000000	-16.000000	-320.000000	-38.000000	-323.000000	-80.000000	0.141602	0.268555	0.263672	0.112305	1.000000	1.000000	1.000000	0.000000
8/25/2022	3:52:16 PM	116853.000000	185521.000000	42173.000000	66984.000000	37129.000000	79206.000000	55314.000000	105035.000000	1215.000000	-7352.000000	-3394.000000	-45.000000	34.000000	-195.000000	-43.000000	-318.000000	-75.000000	0.131836	0.268555	0.258789	0.117187	1.000000	1.000000	1.000000	0.000000
8/25/2022	3:52:16 PM	116241.000000	185212.000000	42093.000000	66903.000000	37079.000000	78757.000000	55425.000000	105433.000000	1227.000000	-7346.000000	-3415.000000	7.000000	65.000000	-121.000000	-34.000000	-315.000000	-77.000000	0.131836	0.249023	0.263672	0.112305	1.000000	1.000000	1.000000	0.000000
8/25/2022	3:52:16 PM	116241.000000	185521.000000	41903.000000	66265.000000	36882.000000	78590.000000	55369.000000	105035.000000	1226.000000	-7366.000000	-3531.000000	14.000000	9.000000	-42.000000	-33.000000	-313.000000	-75.000000	0.122070	0.234375	0.263672	0.102539	1.000000	1.000000	1.000000	0.000000
8/25/2022	3:52:16 PM	116241.000000	186142.000000	42061.000000	67065.000000	36627.000000	78093.000000	55287.000000	106138.000000	1082.000000	-7362.000000	-3410.000000	56.000000	34.000000	37.000000	-33.000000	-317.000000	-73.000000	0.112305	0.229492	0.263672	0.097656	1.000000	1.000000	1.000000	0.000000
8/25/2022	3:52:16 PM	116363.000000	184903.000000	42189.000000	66783.000000	37067.000000	79547.000000	55397.000000	103566.000000	974.000000	-7396.000000	-3400.000000	37.000000	51.000000	53.000000	-38.000000	-314.000000	-75.000000	0.122070	0.224609	0.258789	0.097656	1.000000	1.000000	1.000000	0.000000
8/25/2022	3:52:16 PM	117595.000000	184903.000000	42173.000000	66984.000000	36833.000000	79661.000000	55591.000000	105634.000000	902.000000	-7375.000000	-3328.000000	62.000000	65.000000	6.000000	-35.000000	-314.000000	-77.000000	0.126953	0.209961	0.263672	0.087891	1.000000	1.000000	1.000000	0.000000
8/25/2022	3:52:16 PM	117222.000000	184596.000000	42189.000000	65639.000000	37030.000000	80410.000000	55508.000000	103470.000000	911.000000	-7395.000000	-3379.000000	27.000000	21.000000	12.000000	-35.000000	-323.000000	-84.000000	0.126953	0.219727	0.263672	0.078125	1.000000	1.000000	1.000000	0.000000
8/25/2022	3:52:16 PM	117099.000000	185212.000000	42125.000000	66743.000000	36858.000000	80294.000000	55675.000000	106037.000000	1001.000000	-7395.000000	-3318.000000	59.000000	1.000000	-9.000000	-42.000000	-319.000000	-87.000000	0.141602	0.229492	0.258789	0.083008	1.000000	1.000000	1.000000	0.000000
8/25/2022	3:52:16 PM	117222.000000	184596.000000	42253.000000	66147.000000	36809.000000	79890.000000	55730.000000	103857.000000	977.000000	-7403.000000	-3328.000000	29.000000	26.000000	-3.000000	-33.000000	-308.000000	-81.000000	0.141602	0.239258	0.263672	0.073242	1.000000	1.000000	1.000000	0.000000
8/25/2022	3:52:16 PM	117969.000000	185521.000000	42318.000000	66305.000000	37129.000000	80005.000000	55342.000000	102895.000000	982.000000	-7403.000000	-3379.000000	17.000000	76.000000	8.000000	-34.000000	-315.000000	-79.000000	0.131836	0.234375	0.263672	0.068359	1.000000	1.000000	1.000000	0.000000
8/25/2022	3:52:16 PM	117346.000000	185212.000000	42496.000000	66623.000000	37042.000000	79206.000000	55397.000000	103760.000000	1094.000000	-7401.000000	-3428.000000	36.000000	-4.000000	14.000000	-40.000000	-321.000000	-75.000000	0.131836	0.244141	0.263672	0.063477	1.000000	1.000000	1.000000	0.000000
8/25/2022	3:52:16 PM	118094.000000	185521.000000	42221.000000	66944.000000	36980.000000	80062.000000	55287.000000	105433.000000	990.000000	-7388.000000	-3361.000000	47.000000	27.000000	14.000000	-34.000000	-311.000000	-76.000000	0.122070	0.258789	0.258789	0.063477	1.000000	1.000000	1.000000	0.000000
8/25/2022	3:52:16 PM	118725.000000	185521.000000	42318.000000	67065.000000	37104.000000	79775.000000	54796.000000	105134.000000	967.000000	-7409.000000	-3307.000000	52.000000	36.000000	21.000000	-35.000000	-309.000000	-77.000000	0.126953	0.263672	0.263672	0.053711	1.000000	1.000000	1.000000	0.000000
8/25/2022	3:52:16 PM	119107.000000	185212.000000	42366.000000	66384.000000	36639.000000	79890.000000	55040.000000	105333.000000	1004.000000	-7405.000000	-3311.000000	25.000000	34.000000	-13.000000	-35.000000	-315.000000	-72.000000	0.131836	0.283203	0.263672	0.058594	1.000000	1.000000	1.000000	0.000000
8/25/2022	3:52:16 PM	118979.000000	184290.000000	42269.000000	66823.000000	36882.000000	79775.000000	55204.000000	104541.000000	954.000000	-7392.000000	-3354.000000	15.000000	20.000000	17.000000	-32.000000	-311.000000	-84.000000	0.156250	0.273437	0.263672	0.058594	1.000000	1.000000	1.000000	0.000000
8/25/2022	3:52:16 PM	120007.000000	183985.000000	42577.000000	66663.000000	36882.000000	80410.000000	54931.000000	103470.000000	973.000000	-7391.000000	-3412.000000	43.000000	15.000000	1.000000	-34.000000	-314.000000	-82.000000	0.151367	0.288086	0.258789	0.058594	1.000000	1.000000	1.000000	0.000000
8/25/2022	3:52:16 PM	119620.000000	184903.000000	42626.000000	66783.000000	37054.000000	78869.000000	54877.000000	105035.000000	983.000000	-7427.000000	-3394.000000	41.000000	33.000000	9.000000	-38.000000	-323.000000	-81.000000	0.141602	0.283203	0.263672	0.078125	1.000000	1.000000	1.000000	0.000000
8/25/2022	3:52:16 PM	118979.000000	184596.000000	42512.000000	66663.000000	36784.000000	79547.000000	55150.000000	103086.000000	926.000000	-7392.000000	-3294.000000	51.000000	47.000000	6.000000	-38.000000	-317.000000	-82.000000	0.141602	0.292969	0.263672	0.087891	1.000000	1.000000	1.000000	0.000000
8/25/2022	3:52:16 PM	118220.000000	185212.000000	42593.000000	66463.000000	36858.000000	79094.000000	55095.000000	103374.000000	895.000000	-7415.000000	-3302.000000	32.000000	26.000000	-1.000000	-35.000000	-310.000000	-89.000000	0.156250	0.288086	0.258789	0.092773	1.000000	1.000000	1.000000	0.000000
8/25/2022	3:52:16 PM	119107.000000	184903.000000	42790.000000	66823.000000	36919.000000	78590.000000	54850.000000	104051.000000	956.000000	-7387.000000	-3417.000000	37.000000	22.000000	-21.000000	-34.000000	-318.000000	-92.000000	0.156250	0.278320	0.263672	0.102539	1.000000	1.000000	1.000000	0.000000
8/25/2022	3:52:16 PM	118852.000000	185521.000000	42642.000000	66503.000000	36821.000000	79150.000000	55013.000000	105035.000000	994.000000	-7390.000000	-3336.000000	56.000000	21.000000	-9.000000	-38.000000	-316.000000	-85.000000	0.161133	0.273437	0.263672	0.126953	1.000000	1.000000	1.000000	0.000000
8/25/2022	3:52:16 PM	118852.000000	184903.000000	42512.000000	66823.000000	36471.000000	79947.000000	55369.000000	102139.000000	1013.000000	-7413.000000	-3283.000000	37.000000	21.000000	2.000000	-36.000000	-315.000000	-85.000000	0.166016	0.258789	0.258789	0.141602	1.000000	1.000000	1.000000	0.000000
8/25/2022	3:52:16 PM	119235.000000	185212.000000	42757.000000	66903.000000	36268.000000	79775.000000	55204.000000	103278.000000	966.000000	-7422.000000	-3332.000000	11.000000	42.000000	31.000000	-28.000000	-321.000000	-84.000000	0.166016	0.253906	0.253906	0.146484	1.000000	1.000000	1.000000	0.000000
8/25/2022	3:52:16 PM	119620.000000	184290.000000	42922.000000	65716.000000	36435.000000	79947.000000	55150.000000	104051.000000	898.000000	-7395.000000	-3364.000000	40.000000	49.000000	5.000000	-32.000000	-320.000000	-79.000000	0.161133	0.258789	0.263672	0.175781	1.000000	1.000000	1.000000	0.000000
8/25/2022	3:52:16 PM	118220.000000	184903.000000	42479.000000	66107.000000	36748.000000	80062.000000	55095.000000	103954.000000	958.000000	-7401.000000	-3378.000000	46.000000	20.000000	-4.000000	-36.000000	-311.000000	-82.000000	0.195312	0.253906	0.263672	0.175781	1.000000	1.000000	1.000000	0.000000
8/25/2022	3:52:16 PM	118472.000000	184596.000000	42593.000000	65755.000000	36506.000000	79890.000000	55040.000000	102233.000000	986.000000	-7411.000000	-3296.000000	49.000000	8.000000	-26.000000	-35.000000	-304.000000	-82.000000	0.190430	0.244141	0.268555	0.200195	1.000000	1.000000	1.000000	0.000000
8/25/2022	3:52:16 PM	118725.000000	184903.000000	42790.000000	65794.000000	36579.000000	79547.000000	54608.000000	104442.000000	1025.000000	-7406.000000	-3289.000000	26.000000	18.000000	8.000000	-27.000000	-309.000000	-80.000000	0.175781	0.239258	0.258789	0.234375	1.000000	1.000000	1.000000	0.000000
8/25/2022	3:52:16 PM	118220.000000	184903.000000	42512.000000	65833.000000	36603.000000	78925.000000	54959.000000	105134.000000	1033.000000	-7406.000000	-3314.000000	16.000000	49.000000	16.000000	-31.000000	-318.000000	-80.000000	0.185547	0.229492	0.263672	0.244141	1.000000	1.000000	1.000000	0.000000
8/25/2022	3:52:16 PM	118599.000000	185212.000000	42496.000000	65484.000000	36833.000000	78869.000000	55342.000000	102991.000000	946.000000	-7412.000000	-3397.000000	16.000000	42.000000	23.000000	-35.000000	-319.000000	-84.000000	0.190430	0.219727	0.263672	0.258789	1.000000	1.000000	1.000000	0.000000
8/25/2022	3:52:16 PM	118852.000000	185521.000000	42512.000000	65716.000000	36821.000000	80062.000000	55314.000000	103760.000000	925.000000	-7380.000000	-3384.000000	43.000000	40.000000	8.000000	-33.000000	-314.000000	-83.000000	0.180664	0.229492	0.263672	0.288086	1.000000	1.000000	1.000000	0.000000
8/25/2022	3:52:16 PM	119235.000000	184903.000000	42528.000000	66186.000000	36543.000000	79775.000000	55480.000000	105035.000000	975.000000	-7442.000000	-3349.000000	57.000000	14.000000	5.000000	-34.000000	-317.000000	-83.000000	0.209961	0.219727	0.258789	0.297852	1.000000	1.000000	1.000000	0.000000
8/25/2022	3:52:16 PM	119491.000000	184903.000000	42610.000000	65639.000000	36919.000000	79206.000000	55535.000000	104837.000000	917.000000	-7385.000000	-3268.000000	49.000000	32.000000	-3.000000	-32.000000	-317.000000	-90.000000	0.224609	0.219727	0.263672	0.327148	1.000000	1.000000	1.000000	0.000000
8/25/2022	3:52:16 PM	119620.000000	184596.000000	42642.000000	65833.000000	37091.000000	79206.000000	55040.000000	102610.000000	971.000000	-7444.000000	-3299.000000	23.000000	34.000000	2.000000	-28.000000	-310.000000	-91.000000	0.229492	0.209961	0.263672	0.336914	1.000000	1.000000	1.000000	0.000000
8/25/2022	3:52:16 PM	119363.000000	184596.000000	43156.000000	66226.000000	36809.000000	78479.000000	54877.000000	102610.000000	941.000000	-7394.000000	-3361.000000	18.000000	28.000000	6.000000	-27.000000	-317.000000	-85.000000	0.224609	0.209961	0.263672	0.351562	1.000000	1.000000	1.000000	0.000000
8/25/2022	3:52:17 PM	119235.000000	185831.000000	43257.000000	65990.000000	37054.000000	78535.000000	54986.000000	102991.000000	970.000000	-7441.000000	-3350.000000	29.000000	34.000000	-19.000000	-25.000000	-316.000000	-82.000000	0.239258	0.224609	0.258789	0.380859	1.000000	1.000000	1.000000	0.000000
8/25/2022	3:52:17 PM	118852.000000	184903.000000	43172.000000	66265.000000	36956.000000	78369.000000	55013.000000	103663.000000	994.000000	-7390.000000	-3327.000000	47.000000	3.000000	4.000000	-33.000000	-315.000000	-81.000000	0.249023	0.224609	0.263672	0.410156	1.000000	1.000000	1.000000	0.000000
8/25/2022	3:52:17 PM	119107.000000	184290.000000	43106.000000	65678.000000	37203.000000	77984.000000	54986.000000	103278.000000	951.000000	-7412.000000	-3297.000000	42.000000	34.000000	5.000000	-40.000000	-313.000000	-80.000000	0.258789	0.244141	0.263672	0.429687	1.000000	1.000000	1.000000	0.000000
8/25/2022	3:52:17 PM	118852.000000	184290.000000	42972.000000	65872.000000	36956.000000	77602.000000	54823.000000	106956.000000	964.000000	-7428.000000	-3329.000000	17.000000	29.000000	-11.000000	-34.000000	-311.000000	-85.000000	0.244141	0.234375	0.263672	0.434570	1.000000	1.000000	1.000000	0.000000
8/25/2022	3:52:17 PM	119235.000000	186142.000000	42956.000000	65755.000000	36943.000000	78148.000000	54877.000000	106037.000000	999.000000	-7407.000000	-3383.000000	44.000000	5.000000	-12.000000	-29.000000	-315.000000	-92.000000	0.244141	0.258789	0.263672	0.458984	1.000000	1.000000	1.000000	0.000000
8/25/2022	3:52:17 PM	119620.000000	184290.000000	42823.000000	65523.000000	37178.000000	78869.000000	54959.000000	106037.000000	983.000000	-7422.000000	-3311.000000	49.000000	10.000000	-5.000000	-33.000000	-309.000000	-86.000000	0.268555	0.292969	0.263672	0.458984	1.000000	1.000000	1.000000	0.000000
8/25/2022	3:52:17 PM	119878.000000	184290.000000	42856.000000	65872.000000	36821.000000	78535.000000	54823.000000	102991.000000	938.000000	-7419.000000	-3340.000000	52.000000	30.000000	-12.000000	-36.000000	-308.000000	-83.000000	0.268555	0.297852	0.263672	0.483398	1.000000	1.000000	1.000000	0.000000
8/25/2022	3:52:17 PM	119363.000000	184903.000000	42840.000000	65639.000000	37091.000000	79094.000000	54959.000000	105433.000000	943.000000	-7390.000000	-3351.000000	61.000000	49.000000	-19.000000	-33.000000	-313.000000	-83.000000	0.258789	0.288086	0.263672	0.498047	1.000000	1.000000	1.000000	0.000000
8/25/2022	3:52:17 PM	120137.000000	184903.000000	42626.000000	65678.000000	36907.000000	78757.000000	54986.000000	104246.000000	983.000000	-7431.000000	-3298.000000	61.000000	6.000000	-27.000000	-33.000000	-314.000000	-83.000000	0.278320	0.307617	0.263672	0.498047	1.000000	1.000000	1.000000	0.000000
8/25/2022	3:52:17 PM	119749.000000	184290.000000	42593.000000	65639.000000	36882.000000	78646.000000	54715.000000	106037.000000	1010.000000	-7411.000000	-3283.000000	51.000000	-2.000000	-16.000000	-37.000000	-313.000000	-80.000000	0.273437	0.307617	0.263672	0.522461	1.000000	1.000000	1.000000	0.000000
8/25/2022	3:52:17 PM	120007.000000	184903.000000	42382.000000	65678.000000	36447.000000	78702.000000	55068.000000	103760.000000	1028.000000	-7412.000000	-3290.000000	53.000000	32.000000	-10.000000	-36.000000	-314.000000	-80.000000	0.273437	0.288086	0.263672	0.537109	1.000000	1.000000	1.000000	0.000000
8/25/2022	3:52:17 PM	118725.000000	184290.000000	42334.000000	65794.000000	36447.000000	78702.000000	54715.000000	104837.000000	994.000000	-7417.000000	-3281.000000	33.000000	43.000000	1.000000	-34.000000	-314.000000	-83.000000	0.292969	0.283203	0.258789	0.551758	1.000000	1.000000	1.000000	0.000000
8/25/2022	3:52:17 PM	120267.000000	185212.000000	42431.000000	65445.000000	36543.000000	79150.000000	55040.000000	104246.000000	991.000000	-7404.000000	-3272.000000	30.000000	23.000000	-11.000000	-36.000000	-308.000000	-85.000000	0.288086	0.288086	0.268555	0.537109	1.000000	1.000000	1.000000	0.000000
8/25/2022	3:52:17 PM	119749.000000	184596.000000	42237.000000	66265.000000	36639.000000	78702.000000	55259.000000	104738.000000	1005.000000	-7434.000000	-3306.000000	40.000000	8.000000	-1.000000	-36.000000	-310.000000	-87.000000	0.312500	0.283203	0.263672	0.556641	1.000000	1.000000	1.000000	0.000000
8/25/2022	3:52:17 PM	118979.000000	185212.000000	42334.000000	66226.000000	36809.000000	78702.000000	54986.000000	103566.000000	966.000000	-7401.000000	-3285.000000	26.000000	49.000000	-19.000000	-36.000000	-314.000000	-89.000000	0.302734	0.268555	0.263672	0.556641	1.000000	1.000000	1.000000	0.000000
8/25/2022	3:52:17 PM	120007.000000	185831.000000	42415.000000	66226.000000	37141.000000	78702.000000	55150.000000	102991.000000	986.000000	-7448.000000	-3263.000000	49.000000	25.000000	-2.000000	-31.000000	-313.000000	-92.000000	0.332031	0.258789	0.268555	0.556641	1.000000	1.000000	1.000000	0.000000
8/25/2022	3:52:17 PM	118220.000000	185521.000000	42496.000000	65639.000000	36993.000000	78981.000000	55095.000000	103566.000000	995.000000	-7418.000000	-3264.000000	0.000000	16.000000	-19.000000	-31.000000	-310.000000	-89.000000	0.336914	0.239258	0.263672	0.571289	1.000000	1.000000	1.000000	0.000000
8/25/2022	3:52:17 PM	117595.000000	185521.000000	42479.000000	65716.000000	37030.000000	79319.000000	55040.000000	105035.000000	989.000000	-7396.000000	-3301.000000	33.000000	9.000000	-15.000000	-33.000000	-309.000000	-84.000000	0.336914	0.253906	0.258789	0.576172	1.000000	1.000000	1.000000	0.000000
8/25/2022	3:52:17 PM	119620.000000	184903.000000	42382.000000	66463.000000	36956.000000	79718.000000	55040.000000	101486.000000	1044.000000	-7435.000000	-3374.000000	10.000000	25.000000	5.000000	-29.000000	-314.000000	-81.000000	0.371094	0.258789	0.258789	0.566406	1.000000	1.000000	1.000000	0.000000
8/25/2022	3:52:17 PM	117719.000000	184903.000000	42205.000000	65872.000000	36870.000000	78757.000000	53762.000000	102895.000000	1009.000000	-7408.000000	-3332.000000	36.000000	35.000000	-9.000000	-33.000000	-315.000000	-77.000000	0.361328	0.249023	0.258789	0.581055	1.000000	1.000000	1.000000	0.000000
8/25/2022	3:52:17 PM	119235.000000	184290.000000	42447.000000	66029.000000	36748.000000	78981.000000	54769.000000	103566.000000	980.000000	-7432.000000	-3294.000000	33.000000	17.000000	4.000000	-36.000000	-313.000000	-82.000000	0.395508	0.239258	0.263672	0.581055	1.000000	1.000000	1.000000	0.000000
8/25/2022	3:52:17 PM	118599.000000	184903.000000	42496.000000	66107.000000	37116.000000	79490.000000	54850.000000	103086.000000	975.000000	-7400.000000	-3291.000000	31.000000	20.000000	-2.000000	-34.000000	-320.000000	-89.000000	0.366211	0.249023	0.268555	0.571289	1.000000	1.000000	1.000000	0.000000
8/25/2022	3:52:17 PM	118852.000000	185212.000000	42626.000000	66384.000000	36894.000000	78535.000000	55150.000000	101486.000000	1009.000000	-7420.000000	-3331.000000	18.000000	29.000000	-9.000000	-32.000000	-325.000000	-83.000000	0.380859	0.229492	0.263672	0.576172	1.000000	1.000000	1.000000	0.000000
8/25/2022	3:52:17 PM	119107.000000	184903.000000	42544.000000	66226.000000	36687.000000	79263.000000	55040.000000	104344.000000	989.000000	-7396.000000	-3315.000000	33.000000	23.000000	-15.000000	-31.000000	-323.000000	-85.000000	0.385742	0.224609	0.263672	0.581055	1.000000	1.000000	1.000000	0.000000
8/25/2022	3:52:17 PM	118979.000000	184903.000000	42269.000000	66265.000000	37017.000000	79490.000000	55068.000000	103954.000000	1006.000000	-7426.000000	-3312.000000	37.000000	22.000000	-21.000000	-29.000000	-314.000000	-94.000000	0.405273	0.224609	0.258789	0.571289	1.000000	1.000000	1.000000	0.000000
8/25/2022	3:52:17 PM	119491.000000	184903.000000	42157.000000	65911.000000	36943.000000	79319.000000	54986.000000	102991.000000	984.000000	-7426.000000	-3296.000000	26.000000	38.000000	-7.000000	-35.000000	-308.000000	-87.000000	0.380859	0.224609	0.263672	0.571289	1.000000	1.000000	1.000000	0.000000
8/25/2022	3:52:17 PM	118725.000000	185212.000000	42093.000000	65755.000000	36833.000000	80062.000000	54742.000000	101951.000000	1021.000000	-7402.000000	-3313.000000	32.000000	27.000000	-10.000000	-33.000000	-313.000000	-81.000000	0.400391	0.209961	0.258789	0.576172	1.000000	1.000000	1.000000	0.000000
8/25/2022	3:52:17 PM	118472.000000	185521.000000	42221.000000	66068.000000	36518.000000	79490.000000	55259.000000	103857.000000	1021.000000	-7425.000000	-3331.000000	25.000000	25.000000	-10.000000	-31.000000	-311.000000	-89.000000	0.405273	0.214844	0.263672	0.566406	1.000000	1.000000	1.000000	0.000000
8/25/2022	3:52:17 PM	118220.000000	184290.000000	42205.000000	65639.000000	36699.000000	79150.000000	54931.000000	104738.000000	994.000000	-7383.000000	-3344.000000	51.000000	27.000000	-3.000000	-33.000000	-316.000000	-86.000000	0.400391	0.209961	0.263672	0.576172	1.000000	1.000000	1.000000	0.000000
8/25/2022	3:52:17 PM	118220.000000	184903.000000	42610.000000	65484.000000	36956.000000	78479.000000	54931.000000	101208.000000	1073.000000	-7413.000000	-3333.000000	45.000000	30.000000	4.000000	-35.000000	-316.000000	-81.000000	0.395508	0.209961	0.258789	0.566406	1.000000	1.000000	1.000000	0.000000
8/25/2022	3:52:17 PM	119749.000000	184903.000000	42479.000000	65407.000000	36858.000000	78981.000000	54688.000000	102139.000000	1033.000000	-7424.000000	-3290.000000	31.000000	25.000000	8.000000	-42.000000	-314.000000	-84.000000	0.380859	0.200195	0.263672	0.566406	1.000000	1.000000	1.000000	0.000000
8/25/2022	3:52:17 PM	117844.000000	185521.000000	42692.000000	65561.000000	36627.000000	79037.000000	53452.000000	102139.000000	965.000000	-7428.000000	-3279.000000	35.000000	35.000000	20.000000	-37.000000	-311.000000	-83.000000	0.380859	0.195312	0.263672	0.571289	1.000000	1.000000	1.000000	0.000000
8/25/2022	3:52:17 PM	117719.000000	185521.000000	42659.000000	65445.000000	37042.000000	79433.000000	54474.000000	104344.000000	976.000000	-7454.000000	-3315.000000	32.000000	34.000000	0.000000	-33.000000	-314.000000	-87.000000	0.395508	0.200195	0.263672	0.566406	1.000000	1.000000	1.000000	0.000000
8/25/2022	3:52:17 PM	116120.000000	185521.000000	42093.000000	65794.000000	37153.000000	78925.000000	54102.000000	102139.000000	970.000000	-7406.000000	-3275.000000	24.000000	10.000000	2.000000	-36.000000	-317.000000	-91.000000	0.366211	0.190430	0.263672	0.576172	1.000000	1.000000	1.000000	0.000000
8/25/2022	3:52:17 PM	118852.000000	183985.000000	42061.000000	65445.000000	37153.000000	80005.000000	54314.000000	101578.000000	959.000000	-7427.000000	-3294.000000	40.000000	12.000000	-13.000000	-37.000000	-318.000000	-85.000000	0.351562	0.195312	0.263672	0.605469	1.000000	1.000000	1.000000	0.000000
8/25/2022	3:52:17 PM	117222.000000	185831.000000	42253.000000	66107.000000	37266.000000	78981.000000	55342.000000	100658.000000	1060.000000	-7417.000000	-3378.000000	30.000000	8.000000	1.000000	-34.000000	-321.000000	-84.000000	0.346680	0.214844	0.263672	0.615234	1.000000	1.000000	1.000000	0.000000
8/25/2022	3:52:17 PM	118220.000000	184596.000000	42431.000000	65911.000000	36882.000000	77984.000000	55068.000000	105835.000000	994.000000	-7398.000000	-3327.000000	52.000000	40.000000	-8.000000	-32.000000	-321.000000	-89.000000	0.341797	0.209961	0.268555	0.634766	1.000000	1.000000	1.000000	0.000000
8/25/2022	3:52:17 PM	117222.000000	185521.000000	42512.000000	66226.000000	36809.000000	79775.000000	55397.000000	106138.000000	951.000000	-7435.000000	-3272.000000	46.000000	25.000000	13.000000	-34.000000	-317.000000	-90.000000	0.312500	0.224609	0.258789	0.678711	1.000000	1.000000	1.000000	0.000000
8/25/2022	3:52:17 PM	117222.000000	185521.000000	42366.000000	66503.000000	36858.000000	79150.000000	55287.000000	103857.000000	992.000000	-7432.000000	-3260.000000	34.000000	17.000000	8.000000	-34.000000	-313.000000	-89.000000	0.332031	0.214844	0.263672	0.698242	1.000000	1.000000	1.000000	0.000000
8/25/2022	3:52:17 PM	117099.000000	185521.000000	42463.000000	66226.000000	37030.000000	78925.000000	54715.000000	102705.000000	991.000000	-7409.000000	-3290.000000	30.000000	29.000000	-16.000000	-35.000000	-323.000000	-91.000000	0.312500	0.214844	0.263672	0.742187	1.000000	1.000000	1.000000	0.000000
8/25/2022	3:52:17 PM	116485.000000	184290.000000	42301.000000	65639.000000	36483.000000	78869.000000	54850.000000	102515.000000	1036.000000	-7415.000000	-3341.000000	36.000000	23.000000	5.000000	-35.000000	-327.000000	-84.000000	0.278320	0.234375	0.263672	0.791016	1.000000	1.000000	1.000000	0.000000
8/25/2022	3:52:17 PM	117595.000000	184903.000000	42301.000000	66463.000000	36809.000000	78757.000000	55452.000000	105433.000000	1024.000000	-7423.000000	-3297.000000	41.000000	35.000000	-5.000000	-34.000000	-318.000000	-82.000000	0.253906	0.253906	0.263672	0.815430	1.000000	1.000000	1.000000	0.000000
8/25/2022	3:52:17 PM	118725.000000	185212.000000	41998.000000	66029.000000	36699.000000	78369.000000	54769.000000	105333.000000	966.000000	-7417.000000	-3264.000000	25.000000	32.000000	9.000000	-34.000000	-314.000000	-89.000000	0.229492	0.244141	0.263672	0.849609	1.000000	1.000000	1.000000	0.000000
8/25/2022	3:52:17 PM	118599.000000	185212.000000	42029.000000	65911.000000	36919.000000	78813.000000	54904.000000	103470.000000	965.000000	-7411.000000	-3320.000000	39.000000	25.000000	-7.000000	-31.000000	-309.000000	-83.000000	0.273437	0.278320	0.263672	0.878906	1.000000	1.000000	1.000000	0.000000
8/25/2022	3:52:17 PM	118346.000000	185521.000000	42366.000000	66186.000000	36821.000000	79037.000000	54715.000000	103857.000000	1030.000000	-7424.000000	-3292.000000	43.000000	32.000000	-9.000000	-35.000000	-307.000000	-85.000000	0.517578	0.322266	0.258789	0.888672	1.000000	1.000000	1.000000	0.000000
8/25/2022	3:52:17 PM	120397.000000	184903.000000	42221.000000	66265.000000	37042.000000	78757.000000	54904.000000	105134.000000	1023.000000	-7424.000000	-3275.000000	29.000000	14.000000	-3.000000	-36.000000	-314.000000	-87.000000	0.766602	0.341797	0.263672	0.883789	1.000000	1.000000	1.000000	0.000000
8/25/2022	3:52:17 PM	119363.000000	184903.000000	42366.000000	66344.000000	36724.000000	79263.000000	55095.000000	103470.000000	1011.000000	-7400.000000	-3306.000000	43.000000	27.000000	-7.000000	-32.000000	-315.000000	-76.000000	1.118164	0.366211	0.263672	0.913086	1.000000	1.000000	1.000000	0.000000
8/25/2022	3:52:17 PM	119878.000000	186455.000000	42269.000000	66226.000000	36627.000000	79037.000000	55232.000000	103086.000000	1011.000000	-7427.000000	-3309.000000	33.000000	36.000000	20.000000	-35.000000	-314.000000	-83.000000	1.411133	0.395508	0.263672	0.947266	1.000000	1.000000	1.000000	0.000000
8/25/2022	3:52:17 PM	117969.000000	185212.000000	42285.000000	65833.000000	36483.000000	78813.000000	55287.000000	102895.000000	965.000000	-7440.000000	-3319.000000	34.000000	43.000000	-1.000000	-37.000000	-314.000000	-91.000000	1.806641	0.405273	0.258789	0.981445	1.000000	1.000000	1.000000	0.000000
8/25/2022	3:52:17 PM	117595.000000	186455.000000	42415.000000	65833.000000	36591.000000	78424.000000	55314.000000	104639.000000	1030.000000	-7430.000000	-3298.000000	43.000000	5.000000	5.000000	-34.000000	-317.000000	-85.000000	2.070312	0.385742	0.263672	0.981445	1.000000	1.000000	1.000000	0.000000
8/25/2022	3:52:17 PM	118094.000000	185212.000000	42561.000000	65950.000000	36784.000000	79150.000000	55232.000000	104738.000000	989.000000	-7405.000000	-3262.000000	50.000000	17.000000	-9.000000	-41.000000	-319.000000	-83.000000	2.250977	0.385742	0.263672	1.000977	1.000000	1.000000	1.000000	0.000000
8/25/2022	3:52:17 PM	117969.000000	184903.000000	42479.000000	65911.000000	36748.000000	79094.000000	54904.000000	104541.000000	991.000000	-7431.000000	-3258.000000	33.000000	32.000000	11.000000	-41.000000	-320.000000	-80.000000	2.543945	0.385742	0.263672	1.005859	1.000000	1.000000	1.000000	0.000000
8/25/2022	3:52:17 PM	116730.000000	184290.000000	42757.000000	65755.000000	36375.000000	79206.000000	55068.000000	104051.000000	990.000000	-7422.000000	-3294.000000	36.000000	24.000000	5.000000	-27.000000	-317.000000	-75.000000	2.656250	0.380859	0.263672	1.010742	1.000000	1.000000	1.000000	0.000000
8/25/2022	3:52:17 PM	117470.000000	185212.000000	42610.000000	66463.000000	36435.000000	78813.000000	54474.000000	104639.000000	1022.000000	-7431.000000	-3329.000000	27.000000	22.000000	7.000000	-25.000000	-314.000000	-77.000000	2.802734	0.336914	0.263672	1.005859	1.000000	1.000000	1.000000	0.000000
8/25/2022	3:52:17 PM	120007.000000	184596.000000	42889.000000	66583.000000	36316.000000	78479.000000	54500.000000	103954.000000	961.000000	-7419.000000	-3282.000000	59.000000	25.000000	18.000000	-33.000000	-318.000000	-85.000000	2.866211	0.322266	0.263672	0.991211	1.000000	1.000000	1.000000	0.000000
8/25/2022	3:52:17 PM	118220.000000	184596.000000	42856.000000	65872.000000	36495.000000	77874.000000	53145.000000	103663.000000	937.000000	-7461.000000	-3235.000000	50.000000	33.000000	15.000000	-32.000000	-316.000000	-90.000000	2.954102	0.288086	0.263672	0.976562	1.000000	1.000000	1.000000	0.000000
8/25/2022	3:52:17 PM	117844.000000	184596.000000	42823.000000	66543.000000	36304.000000	77279.000000	55232.000000	104837.000000	933.000000	-7411.000000	-3229.000000	18.000000	41.000000	-5.000000	-31.000000	-314.000000	-84.000000	2.968750	0.273437	0.263672	0.957031	1.000000	1.000000	1.000000	0.000000
8/25/2022	3:52:17 PM	118472.000000	184596.000000	42593.000000	65833.000000	36555.000000	77874.000000	55068.000000	104639.000000	983.000000	-7445.000000	-3304.000000	32.000000	20.000000	1.000000	-34.000000	-310.000000	-83.000000	2.993164	0.268555	0.263672	0.922852	1.000000	1.000000	1.000000	0.000000
8/25/2022	3:52:17 PM	118599.000000	184290.000000	42790.000000	66463.000000	36555.000000	77765.000000	55259.000000	104149.000000	1023.000000	-7420.000000	-3293.000000	42.000000	4.000000	-5.000000	-29.000000	-315.000000	-85.000000	3.007812	0.273437	0.258789	0.922852	1.000000	1.000000	1.000000	0.000000
8/25/2022	3:52:17 PM	117969.000000	184290.000000	42496.000000	65950.000000	36993.000000	77765.000000	55259.000000	103954.000000	933.000000	-7433.000000	-3259.000000	24.000000	51.000000	13.000000	-34.000000	-320.000000	-89.000000	3.007812	0.278320	0.263672	0.893555	1.000000	1.000000	1.000000	0.000000
8/25/2022	3:52:17 PM	118472.000000	184290.000000	42626.000000	66068.000000	36530.000000	77657.000000	55204.000000	102610.000000	1009.000000	-7432.000000	-3281.000000	38.000000	25.000000	-2.000000	-45.000000	-314.000000	-86.000000	2.973633	0.273437	0.258789	0.854492	1.000000	1.000000	1.000000	0.000000
8/25/2022	3:52:17 PM	118094.000000	183681.000000	42398.000000	66344.000000	36327.000000	77765.000000	55122.000000	103954.000000	929.000000	-7435.000000	-3261.000000	32.000000	31.000000	6.000000	-46.000000	-314.000000	-82.000000	2.958984	0.263672	0.263672	0.839844	1.000000	1.000000	1.000000	0.000000
8/25/2022	3:52:17 PM	117470.000000	184596.000000	42382.000000	66107.000000	36351.000000	77011.000000	54581.000000	103760.000000	995.000000	-7436.000000	-3287.000000	41.000000	7.000000	-11.000000	-41.000000	-318.000000	-81.000000	2.939453	0.249023	0.258789	0.810547	1.000000	1.000000	1.000000	0.000000
8/25/2022	3:52:17 PM	118725.000000	185212.000000	42626.000000	66663.000000	36687.000000	77765.000000	54769.000000	102991.000000	997.000000	-7440.000000	-3262.000000	25.000000	37.000000	-3.000000	-35.000000	-313.000000	-75.000000	2.919922	0.249023	0.263672	0.786133	1.000000	1.000000	1.000000	0.000000
8/25/2022	3:52:17 PM	118852.000000	185521.000000	42109.000000	66463.000000	36615.000000	77657.000000	54394.000000	104344.000000	999.000000	-7428.000000	-3273.000000	36.000000	16.000000	1.000000	-32.000000	-313.000000	-82.000000	2.851562	0.239258	0.263672	0.761719	1.000000	1.000000	1.000000	0.000000
8/25/2022	3:52:17 PM	119107.000000	184903.000000	42205.000000	66863.000000	36627.000000	77118.000000	54208.000000	103566.000000	1013.000000	-7420.000000	-3272.000000	44.000000	21.000000	3.000000	-38.000000	-308.000000	-89.000000	2.812500	0.239258	0.258789	0.717773	1.000000	1.000000	1.000000	0.000000
8/25/2022	3:52:17 PM	118346.000000	185831.000000	42221.000000	66463.000000	36627.000000	77984.000000	55204.000000	103663.000000	941.000000	-7453.000000	-3261.000000	27.000000	38.000000	9.000000	-40.000000	-305.000000	-91.000000	2.778320	0.278320	0.263672	0.703125	1.000000	1.000000	1.000000	0.000000
8/25/2022	3:52:17 PM	118094.000000	185521.000000	42237.000000	66543.000000	36675.000000	77929.000000	55204.000000	103374.000000	993.000000	-7422.000000	-3264.000000	33.000000	20.000000	-6.000000	-38.000000	-313.000000	-87.000000	2.763672	0.297852	0.258789	0.678711	1.000000	1.000000	1.000000	0.000000
8/25/2022	3:52:17 PM	119620.000000	185521.000000	42093.000000	66583.000000	36809.000000	78590.000000	55204.000000	102233.000000	943.000000	-7438.000000	-3259.000000	49.000000	32.000000	-9.000000	-37.000000	-315.000000	-76.000000	2.680664	0.356445	0.263672	0.629883	1.000000	1.000000	1.000000	0.000000
8/25/2022	3:52:17 PM	119235.000000	185212.000000	42318.000000	66663.000000	37030.000000	78424.000000	55122.000000	103760.000000	997.000000	-7433.000000	-3250.000000	24.000000	13.000000	-10.000000	-37.000000	-317.000000	-72.000000	2.661133	0.366211	0.263672	0.620117	1.000000	1.000000	1.000000	0.000000
8/25/2022	3:52:17 PM	118725.000000	184596.000000	42141.000000	66623.000000	37129.000000	77279.000000	54314.000000	103086.000000	965.000000	-7417.000000	-3245.000000	27.000000	25.000000	-10.000000	-38.000000	-321.000000	-72.000000	2.626953	0.385742	0.263672	0.585937	1.000000	1.000000	1.000000	0.000000
8/25/2022	3:52:17 PM	118346.000000	184903.000000	42141.000000	65950.000000	36870.000000	77711.000000	54102.000000	103663.000000	999.000000	-7444.000000	-3304.000000	18.000000	21.000000	-6.000000	-32.000000	-323.000000	-75.000000	2.602539	0.454102	0.263672	0.541992	1.000000	1.000000	1.000000	0.000000
8/25/2022	3:52:17 PM	117470.000000	185831.000000	42045.000000	66265.000000	36797.000000	78038.000000	54554.000000	100841.000000	991.000000	-7432.000000	-3288.000000	33.000000	28.000000	-5.000000	-31.000000	-320.000000	-77.000000	2.543945	0.527344	0.258789	0.541992	1.000000	1.000000	1.000000	0.000000
8/25/2022	3:52:17 PM	118094.000000	184596.000000	41527.000000	66265.000000	36675.000000	77874.000000	54796.000000	102991.000000	1013.000000	-7453.000000	-3272.000000	29.000000	23.000000	7.000000	-32.000000	-318.000000	-79.000000	2.504883	0.556641	0.263672	0.507812	1.000000	1.000000	1.000000	0.000000
8/25/2022	3:52:18 PM	118220.000000	185521.000000	42045.000000	66503.000000	36675.000000	78038.000000	54688.000000	103470.000000	936.000000	-7422.000000	-3243.000000	29.000000	32.000000	-4.000000	-36.000000	-314.000000	-82.000000	2.485352	0.595703	0.263672	0.483398	1.000000	1.000000	1.000000	0.000000
8/25/2022	3:52:18 PM	118725.000000	185521.000000	41558.000000	66623.000000	36772.000000	77386.000000	54904.000000	102895.000000	953.000000	-7446.000000	-3282.000000	28.000000	21.000000	-9.000000	-37.000000	-313.000000	-75.000000	2.436523	0.629883	0.263672	0.463867	1.000000	1.000000	1.000000	0.000000
8/25/2022	3:52:18 PM	116853.000000	184596.000000	41651.000000	66423.000000	36907.000000	78369.000000	54661.000000	101951.000000	1025.000000	-7407.000000	-3301.000000	41.000000	15.000000	-20.000000	-35.000000	-314.000000	-71.000000	2.436523	0.625000	0.263672	0.449219	1.000000	1.000000	1.000000	0.000000
8/25/2022	3:52:18 PM	117595.000000	185212.000000	42415.000000	66703.000000	36760.000000	77984.000000	54420.000000	101578.000000	1028.000000	-7441.000000	-3292.000000	27.000000	30.000000	13.000000	-32.000000	-310.000000	-74.000000	2.387695	0.629883	0.263672	0.419922	1.000000	1.000000	1.000000	0.000000
8/25/2022	3:52:18 PM	117844.000000	185521.000000	42269.000000	66583.000000	36639.000000	77494.000000	55122.000000	103374.000000	913.000000	-7450.000000	-3237.000000	32.000000	38.000000	0.000000	-29.000000	-309.000000	-71.000000	2.377930	0.620117	0.263672	0.415039	1.000000	1.000000	1.000000	0.000000
8/25/2022	3:52:18 PM	117099.000000	185521.000000	42269.000000	66503.000000	36495.000000	77711.000000	54715.000000	102045.000000	922.000000	-7443.000000	-3240.000000	25.000000	24.000000	-14.000000	-33.000000	-312.000000	-74.000000	2.333984	0.629883	0.263672	0.390625	1.000000	1.000000	1.000000	0.000000
8/25/2022	3:52:18 PM	118094.000000	185521.000000	41998.000000	66147.000000	36833.000000	78313.000000	55177.000000	103663.000000	966.000000	-7424.000000	-3310.000000	33.000000	0.000000	-33.000000	-35.000000	-311.000000	-81.000000	2.299805	0.629883	0.263672	0.385742	1.000000	1.000000	1.000000	0.000000
8/25/2022	3:52:18 PM	118852.000000	186142.000000	42093.000000	66265.000000	36687.000000	78203.000000	55232.000000	104051.000000	1006.000000	-7438.000000	-3282.000000	43.000000	12.000000	-36.000000	-35.000000	-312.000000	-80.000000	2.270508	0.600586	0.263672	0.371094	1.000000	1.000000	1.000000	0.000000
8/25/2022	3:52:18 PM	118346.000000	186142.000000	41871.000000	66463.000000	36603.000000	78258.000000	55232.000000	102610.000000	1004.000000	-7426.000000	-3236.000000	25.000000	21.000000	-22.000000	-34.000000	-314.000000	-74.000000	2.250977	0.605469	0.258789	0.341797	1.000000	1.000000	1.000000	0.000000
8/25/2022	3:52:18 PM	117595.000000	185521.000000	42093.000000	66147.000000	36699.000000	78313.000000	54661.000000	102515.000000	1049.000000	-7427.000000	-3298.000000	25.000000	23.000000	-20.000000	-35.000000	-314.000000	-67.000000	2.236328	0.590820	0.263672	0.341797	1.000000	1.000000	1.000000	0.000000
8/25/2022	3:52:18 PM	118472.000000	185521.000000	42447.000000	65369.000000	37042.000000	79206.000000	54769.000000	101393.000000	1033.000000	-7419.000000	-3301.000000	24.000000	21.000000	-8.000000	-35.000000	-318.000000	-73.000000	2.192383	0.581055	0.263672	0.317383	1.000000	1.000000	1.000000	0.000000
8/25/2022	3:52:18 PM	117844.000000	185521.000000	41919.000000	65950.000000	36591.000000	78479.000000	54129.000000	101208.000000	1005.000000	-7436.000000	-3295.000000	38.000000	25.000000	0.000000	-31.000000	-317.000000	-83.000000	2.172852	0.551758	0.263672	0.302734	1.000000	1.000000	1.000000	0.000000
8/25/2022	3:52:18 PM	117346.000000	185521.000000	41698.000000	66029.000000	36736.000000	78369.000000	55591.000000	104051.000000	944.000000	-7420.000000	-3315.000000	50.000000	28.000000	-11.000000	-34.000000	-310.000000	-80.000000	2.148437	0.556641	0.263672	0.292969	1.000000	1.000000	1.000000	0.000000
8/25/2022	3:52:18 PM	118346.000000	186142.000000	41542.000000	65639.000000	36530.000000	78757.000000	54877.000000	105433.000000	985.000000	-7418.000000	-3240.000000	74.000000	25.000000	-27.000000	-42.000000	-309.000000	-73.000000	2.124023	0.537109	0.263672	0.268555	1.000000	1.000000	1.000000	0.000000
8/25/2022	3:52:18 PM	117719.000000	186142.000000	41342.000000	66186.000000	36797.000000	79206.000000	55287.000000	103566.000000	1057.000000	-7436.000000	-3258.000000	14.000000	8.000000	-23.000000	-35.000000	-310.000000	-79.000000	2.089844	0.541992	0.263672	0.263672	1.000000	1.000000	1.000000	0.000000
8/25/2022	3:52:18 PM	117222.000000	186142.000000	41449.000000	66147.000000	36675.000000	78925.000000	55177.000000	103663.000000	1125.000000	-7413.000000	-3294.000000	39.000000	-7.000000	-7.000000	-34.000000	-317.000000	-76.000000	2.089844	0.502930	0.263672	0.253906	1.000000	1.000000	1.000000	0.000000
8/25/2022	3:52:18 PM	117969.000000	184596.000000	41434.000000	65911.000000	36748.000000	78813.000000	55452.000000	104051.000000	1086.000000	-7416.000000	-3284.000000	49.000000	11.000000	-5.000000	-41.000000	-321.000000	-75.000000	2.045898	0.498047	0.258789	0.229492	1.000000	1.000000	1.000000	0.000000
8/25/2022	3:52:18 PM	119235.000000	184903.000000	41558.000000	65911.000000	36530.000000	79206.000000	55040.000000	106037.000000	1023.000000	-7447.000000	-3241.000000	44.000000	27.000000	10.000000	-31.000000	-320.000000	-76.000000	2.026367	0.488281	0.258789	0.224609	1.000000	1.000000	1.000000	0.000000
8/25/2022	3:52:18 PM	119620.000000	185831.000000	41449.000000	66384.000000	36530.000000	79376.000000	54527.000000	105035.000000	994.000000	-7463.000000	-3274.000000	41.000000	13.000000	23.000000	-31.000000	-313.000000	-85.000000	2.026367	0.439453	0.258789	0.214844	1.000000	1.000000	1.000000	0.000000
8/25/2022	3:52:18 PM	118979.000000	184596.000000	41372.000000	66623.000000	36663.000000	80005.000000	54182.000000	104837.000000	1004.000000	-7428.000000	-3213.000000	41.000000	30.000000	11.000000	-25.000000	-307.000000	-89.000000	2.016602	0.400391	0.263672	0.195312	1.000000	1.000000	1.000000	0.000000
8/25/2022	3:52:18 PM	117595.000000	185521.000000	40961.000000	66543.000000	36399.000000	79319.000000	54715.000000	103086.000000	990.000000	-7446.000000	-3239.000000	29.000000	24.000000	19.000000	-31.000000	-313.000000	-91.000000	2.036133	0.366211	0.263672	0.190430	1.000000	1.000000	1.000000	0.000000
8/25/2022	3:52:18 PM	118220.000000	186142.000000	40885.000000	66703.000000	36530.000000	78925.000000	54261.000000	103182.000000	984.000000	-7441.000000	-3244.000000	16.000000	29.000000	-6.000000	-34.000000	-308.000000	-90.000000	1.972656	0.351562	0.263672	0.180664	1.000000	1.000000	1.000000	0.000000
8/25/2022	3:52:18 PM	118725.000000	185212.000000	40825.000000	66147.000000	36845.000000	78369.000000	54447.000000	101671.000000	1006.000000	-7421.000000	-3277.000000	15.000000	23.000000	-6.000000	-29.000000	-308.000000	-86.000000	1.962891	0.356445	0.263672	0.166016	1.000000	1.000000	1.000000	0.000000
8/25/2022	3:52:18 PM	119235.000000	185521.000000	41082.000000	65990.000000	36579.000000	79661.000000	54634.000000	104541.000000	980.000000	-7436.000000	-3286.000000	31.000000	25.000000	-4.000000	-29.000000	-310.000000	-83.000000	1.958008	0.346680	0.263672	0.151367	1.000000	1.000000	1.000000	0.000000
8/25/2022	3:52:18 PM	119749.000000	185831.000000	40750.000000	66344.000000	36724.000000	78479.000000	54688.000000	104541.000000	1034.000000	-7442.000000	-3285.000000	27.000000	15.000000	-10.000000	-28.000000	-309.000000	-86.000000	1.953125	0.361328	0.258789	0.151367	1.000000	1.000000	1.000000	0.000000
8/25/2022	3:52:18 PM	119749.000000	185831.000000	40601.000000	65716.000000	36603.000000	78813.000000	54661.000000	103857.000000	1007.000000	-7431.000000	-3257.000000	21.000000	37.000000	-6.000000	-28.000000	-311.000000	-89.000000	1.933594	0.361328	0.258789	0.136719	1.000000	1.000000	1.000000	0.000000
8/25/2022	3:52:18 PM	120137.000000	185521.000000	40631.000000	65950.000000	36627.000000	79319.000000	54850.000000	104246.000000	975.000000	-7430.000000	-3291.000000	30.000000	24.000000	-1.000000	-35.000000	-308.000000	-89.000000	1.933594	0.385742	0.263672	0.131836	1.000000	1.000000	1.000000	0.000000
8/25/2022	3:52:18 PM	120397.000000	185212.000000	40810.000000	66623.000000	36651.000000	80005.000000	54959.000000	104936.000000	1044.000000	-7436.000000	-3262.000000	42.000000	16.000000	-12.000000	-33.000000	-306.000000	-86.000000	1.938477	0.415039	0.263672	0.126953	1.000000	1.000000	1.000000	0.000000
8/25/2022	3:52:18 PM	119878.000000	184290.000000	41295.000000	66068.000000	36748.000000	80294.000000	53997.000000	104541.000000	1028.000000	-7424.000000	-3240.000000	31.000000	21.000000	1.000000	-29.000000	-314.000000	-85.000000	1.899414	0.424805	0.258789	0.112305	1.000000	1.000000	1.000000	0.000000
8/25/2022	3:52:18 PM	119363.000000	185212.000000	41280.000000	66543.000000	36615.000000	80761.000000	54340.000000	105634.000000	990.000000	-7433.000000	-3261.000000	34.000000	44.000000	5.000000	-36.000000	-314.000000	-86.000000	1.889648	0.424805	0.258789	0.117187	1.000000	1.000000	1.000000	0.000000
8/25/2022	3:52:18 PM	119363.000000	185521.000000	41082.000000	66344.000000	36603.000000	81292.000000	54877.000000	103663.000000	958.000000	-7450.000000	-3312.000000	28.000000	36.000000	-1.000000	-29.000000	-311.000000	-87.000000	1.860352	0.415039	0.263672	0.117187	1.000000	1.000000	1.000000	0.000000
8/25/2022	3:52:18 PM	119235.000000	185212.000000	40735.000000	66384.000000	36459.000000	81771.000000	54796.000000	101671.000000	990.000000	-7406.000000	-3237.000000	62.000000	20.000000	-18.000000	-29.000000	-311.000000	-86.000000	1.826172	0.385742	0.263672	0.107422	1.000000	1.000000	1.000000	0.000000
8/25/2022	3:52:18 PM	118852.000000	184903.000000	40750.000000	66344.000000	36663.000000	81411.000000	55122.000000	103086.000000	1037.000000	-7442.000000	-3251.000000	18.000000	2.000000	-6.000000	-33.000000	-313.000000	-89.000000	1.777344	0.341797	0.263672	0.107422	1.000000	1.000000	1.000000	0.000000
8/25/2022	3:52:18 PM	118220.000000	185212.000000	40498.000000	66107.000000	36471.000000	81352.000000	54850.000000	102610.000000	994.000000	-7421.000000	-3298.000000	18.000000	31.000000	-3.000000	-32.000000	-315.000000	-94.000000	1.748047	0.317383	0.263672	0.102539	1.000000	1.000000	1.000000	0.000000
8/25/2022	3:52:18 PM	117595.000000	185521.000000	40616.000000	65950.000000	36411.000000	81292.000000	54823.000000	104936.000000	1039.000000	-7431.000000	-3321.000000	43.000000	35.000000	9.000000	-28.000000	-315.000000	-93.000000	1.723633	0.302734	0.258789	0.087891	1.000000	1.000000	1.000000	0.000000
8/25/2022	3:52:18 PM	118599.000000	185521.000000	40691.000000	66107.000000	36233.000000	80294.000000	55040.000000	103374.000000	998.000000	-7439.000000	-3237.000000	41.000000	29.000000	4.000000	-36.000000	-319.000000	-83.000000	1.704102	0.278320	0.263672	0.092773	1.000000	1.000000	1.000000	0.000000
8/25/2022	3:52:18 PM	117470.000000	185831.000000	40720.000000	66107.000000	36399.000000	81352.000000	55095.000000	104149.000000	1020.000000	-7439.000000	-3234.000000	50.000000	-6.000000	2.000000	-43.000000	-317.000000	-86.000000	1.655273	0.263672	0.268555	0.083008	1.000000	1.000000	1.000000	0.000000
8/25/2022	3:52:18 PM	118725.000000	185212.000000	40468.000000	66344.000000	36736.000000	81055.000000	54850.000000	102327.000000	997.000000	-7429.000000	-3265.000000	22.000000	43.000000	4.000000	-35.000000	-316.000000	-91.000000	1.621094	0.263672	0.263672	0.068359	1.000000	1.000000	1.000000	0.000000
8/25/2022	3:52:18 PM	117969.000000	185521.000000	40527.000000	65950.000000	36736.000000	81411.000000	55040.000000	103954.000000	1014.000000	-7446.000000	-3289.000000	36.000000	41.000000	14.000000	-31.000000	-323.000000	-91.000000	1.591797	0.249023	0.263672	0.068359	1.000000	1.000000	1.000000	0.000000
8/25/2022	3:52:18 PM	117844.000000	184596.000000	41021.000000	65911.000000	37005.000000	81352.000000	55150.000000	102045.000000	1018.000000	-7439.000000	-3273.000000	39.000000	17.000000	-9.000000	-36.000000	-320.000000	-90.000000	1.562500	0.249023	0.258789	0.058594	1.000000	1.000000	1.000000	0.000000
8/25/2022	3:52:18 PM	117969.000000	185521.000000	40795.000000	66583.000000	36809.000000	80761.000000	55287.000000	100385.000000	953.000000	-7435.000000	-3208.000000	38.000000	26.000000	6.000000	-38.000000	-313.000000	-83.000000	1.528320	0.234375	0.258789	0.058594	1.000000	1.000000	1.000000	0.000000
8/25/2022	3:52:18 PM	117099.000000	184903.000000	40885.000000	65678.000000	36797.000000	81292.000000	54959.000000	99576.000000	1004.000000	-7455.000000	-3250.000000	24.000000	31.000000	-7.000000	-37.000000	-311.000000	-89.000000	1.528320	0.229492	0.263672	0.058594	1.000000	1.000000	1.000000	0.000000
8/25/2022	3:52:18 PM	117595.000000	183985.000000	41127.000000	66344.000000	36797.000000	80937.000000	55095.000000	101578.000000	979.000000	-7437.000000	-3293.000000	32.000000	38.000000	-3.000000	-42.000000	-313.000000	-93.000000	1.508789	0.229492	0.263672	0.053711	1.000000	1.000000	1.000000	0.000000
8/25/2022	3:52:18 PM	117222.000000	185212.000000	40601.000000	66503.000000	36821.000000	80937.000000	55535.000000	101951.000000	964.000000	-7424.000000	-3278.000000	43.000000	25.000000	-2.000000	-34.000000	-316.000000	-91.000000	1.479492	0.229492	0.263672	0.053711	1.000000	1.000000	1.000000	0.000000
8/25/2022	3:52:18 PM	117595.000000	183985.000000	40483.000000	66663.000000	36699.000000	81352.000000	55287.000000	102705.000000	986.000000	-7446.000000	-3225.000000	51.000000	24.000000	-13.000000	-34.000000	-320.000000	-92.000000	1.450195	0.229492	0.263672	0.048828	1.000000	1.000000	1.000000	0.000000
8/25/2022	3:52:18 PM	117222.000000	184596.000000	40278.000000	66344.000000	36567.000000	80527.000000	53710.000000	101208.000000	1068.000000	-7449.000000	-3254.000000	28.000000	10.000000	11.000000	-32.000000	-318.000000	-89.000000	1.440430	0.253906	0.263672	0.043945	1.000000	1.000000	1.000000	0.000000
8/25/2022	3:52:18 PM	117969.000000	184903.000000	40380.000000	66265.000000	36821.000000	81651.000000	53684.000000	100567.000000	961.000000	-7428.000000	-3270.000000	10.000000	62.000000	7.000000	-27.000000	-314.000000	-81.000000	1.420898	0.258789	0.263672	0.043945	1.000000	1.000000	1.000000	0.000000
8/25/2022	3:52:18 PM	118472.000000	185212.000000	40601.000000	66543.000000	36931.000000	81471.000000	54904.000000	101301.000000	976.000000	-7437.000000	-3246.000000	68.000000	15.000000	-3.000000	-31.000000	-310.000000	-84.000000	1.381836	0.249023	0.263672	0.048828	1.000000	1.000000	1.000000	0.000000
8/25/2022	3:52:18 PM	117719.000000	185212.000000	40365.000000	66543.000000	36956.000000	81711.000000	55122.000000	101671.000000	1009.000000	-7468.000000	-3238.000000	30.000000	30.000000	-7.000000	-32.000000	-310.000000	-90.000000	1.391602	0.263672	0.263672	0.043945	1.000000	1.000000	1.000000	0.000000
8/25/2022	3:52:18 PM	117222.000000	184596.000000	40365.000000	66384.000000	36907.000000	81352.000000	54904.000000	101393.000000	1027.000000	-7408.000000	-3217.000000	31.000000	12.000000	-8.000000	-34.000000	-310.000000	-87.000000	1.381836	0.273437	0.263672	0.053711	1.000000	1.000000	1.000000	0.000000
8/25/2022	3:52:18 PM	117099.000000	185212.000000	40263.000000	66623.000000	36495.000000	81711.000000	53919.000000	100024.000000	1020.000000	-7450.000000	-3255.000000	22.000000	43.000000	3.000000	-32.000000	-315.000000	-86.000000	1.347656	0.273437	0.258789	0.043945	1.000000	1.000000	1.000000	0.000000
8/25/2022	3:52:18 PM	117346.000000	184290.000000	40351.000000	65990.000000	37067.000000	80937.000000	55287.000000	101024.000000	1008.000000	-7439.000000	-3272.000000	34.000000	12.000000	-4.000000	-35.000000	-318.000000	-90.000000	1.352539	0.302734	0.258789	0.048828	1.000000	1.000000	1.000000	0.000000
8/25/2022	3:52:18 PM	116853.000000	184596.000000	40307.000000	66463.000000	36797.000000	81411.000000	54500.000000	100295.000000	991.000000	-7434.000000	-3287.000000	40.000000	34.000000	6.000000	-36.000000	-316.000000	-91.000000	1.328125	0.332031	0.258789	0.043945	1.000000	1.000000	1.000000	0.000000
8/25/2022	3:52:18 PM	117595.000000	184596.000000	40336.000000	66186.000000	36931.000000	80468.000000	54715.000000	100204.000000	990.000000	-7446.000000	-3249.000000	54.000000	23.000000	14.000000	-34.000000	-313.000000	-84.000000	1.318359	0.341797	0.258789	0.048828	1.000000	1.000000	1.000000	0.000000
8/25/2022	3:52:18 PM	118094.000000	185212.000000	40527.000000	67065.000000	36894.000000	81651.000000	54527.000000	101116.000000	994.000000	-7458.000000	-3210.000000	29.000000	33.000000	7.000000	-31.000000	-309.000000	-84.000000	1.318359	0.375977	0.263672	0.048828	1.000000	1.000000	1.000000	0.000000
8/25/2022	3:52:18 PM	118346.000000	184903.000000	40542.000000	66226.000000	36748.000000	80761.000000	54182.000000	104541.000000	959.000000	-7445.000000	-3232.000000	29.000000	12.000000	0.000000	-28.000000	-313.000000	-87.000000	1.303711	0.390625	0.263672	0.058594	1.000000	1.000000	1.000000	0.000000
8/25/2022	3:52:18 PM	117719.000000	184290.000000	40395.000000	66703.000000	36956.000000	81292.000000	54474.000000	100567.000000	1003.000000	-7440.000000	-3282.000000	40.000000	24.000000	2.000000	-36.000000	-314.000000	-87.000000	1.303711	0.410156	0.263672	0.058594	1.000000	1.000000	1.000000	0.000000
8/25/2022	3:52:18 PM	117844.000000	184290.000000	39816.000000	66384.000000	36931.000000	81233.000000	53658.000000	104149.000000	1039.000000	-7437.000000	-3276.000000	44.000000	21.000000	2.000000	-42.000000	-311.000000	-82.000000	1.318359	0.424805	0.263672	0.063477	1.000000	1.000000	1.000000	0.000000
8/25/2022	3:52:18 PM	118094.000000	184596.000000	40735.000000	66029.000000	36748.000000	82073.000000	53762.000000	105333.000000	1035.000000	-7422.000000	-3223.000000	50.000000	30.000000	18.000000	-38.000000	-307.000000	-77.000000	1.313477	0.439453	0.263672	0.068359	1.000000	1.000000	1.000000	0.000000
8/25/2022	3:52:18 PM	116976.000000	185212.000000	40646.000000	66186.000000	37030.000000	81471.000000	54261.000000	103760.000000	960.000000	-7456.000000	-3219.000000	32.000000	20.000000	0.000000	-37.000000	-313.000000	-82.000000	1.328125	0.463867	0.263672	0.068359	1.000000	1.000000	1.000000	0.000000
8/25/2022	3:52:18 PM	118346.000000	185212.000000	40601.000000	66344.000000	36687.000000	81114.000000	54474.000000	102045.000000	951.000000	-7431.000000	-3249.000000	26.000000	35.000000	-3.000000	-38.000000	-317.000000	-84.000000	1.323242	0.478516	0.263672	0.063477	1.000000	1.000000	1.000000	0.000000
8/25/2022	3:52:18 PM	117844.000000	184290.000000	40483.000000	66068.000000	36784.000000	81471.000000	54500.000000	103086.000000	1017.000000	-7451.000000	-3275.000000	41.000000	22.000000	-11.000000	-37.000000	-313.000000	-89.000000	1.323242	0.483398	0.263672	0.083008	1.000000	1.000000	1.000000	0.000000
8/25/2022	3:52:18 PM	118346.000000	184903.000000	40542.000000	65561.000000	36993.000000	82133.000000	53247.000000	104051.000000	994.000000	-7442.000000	-3202.000000	34.000000	24.000000	-9.000000	-40.000000	-317.000000	-94.000000	1.318359	0.458984	0.263672	0.073242	1.000000	1.000000	1.000000	0.000000
8/25/2022	3:52:18 PM	117222.000000	183985.000000	40439.000000	65523.000000	36748.000000	81591.000000	53840.000000	102421.000000	1039.000000	-7428.000000	-3224.000000	44.000000	7.000000	-1.000000	-40.000000	-308.000000	-95.000000	1.318359	0.419922	0.263672	0.083008	1.000000	1.000000	1.000000	0.000000
8/25/2022	3:52:18 PM	117470.000000	184596.000000	40380.000000	65407.000000	36956.000000	81771.000000	54527.000000	102991.000000	968.000000	-7446.000000	-3247.000000	18.000000	58.000000	11.000000	-32.000000	-308.000000	-92.000000	1.333008	0.410156	0.263672	0.087891	1.000000	1.000000	1.000000	0.000000
8/25/2022	3:52:18 PM	117844.000000	185212.000000	40750.000000	65911.000000	36797.000000	82194.000000	54634.000000	101393.000000	973.000000	-7462.000000	-3258.000000	36.000000	35.000000	5.000000	-28.000000	-314.000000	-84.000000	1.342773	0.371094	0.263672	0.083008	1.000000	1.000000	1.000000	0.000000
8/25/2022	3:52:18 PM	117969.000000	185831.000000	40542.000000	66107.000000	36809.000000	81352.000000	54287.000000	101858.000000	975.000000	-7458.000000	-3255.000000	32.000000	24.000000	-9.000000	-32.000000	-308.000000	-85.000000	1.318359	0.327148	0.263672	0.087891	1.000000	1.000000	1.000000	0.000000
8/25/2022	3:52:18 PM	117969.000000	184903.000000	40336.000000	66186.000000	36858.000000	81411.000000	54608.000000	103182.000000	994.000000	-7426.000000	-3215.000000	48.000000	8.000000	2.000000	-34.000000	-317.000000	-86.000000	1.328125	0.312500	0.263672	0.092773	1.000000	1.000000	1.000000	0.000000
8/25/2022	3:52:18 PM	118472.000000	184596.000000	40587.000000	66384.000000	36931.000000	81771.000000	54287.000000	101671.000000	1007.000000	-7461.000000	-3247.000000	14.000000	40.000000	-3.000000	-35.000000	-319.000000	-89.000000	1.337891	0.302734	0.263672	0.083008	1.000000	1.000000	1.000000	0.000000
8/25/2022	3:52:18 PM	118094.000000	184596.000000	40750.000000	66029.000000	36567.000000	82255.000000	52792.000000	102233.000000	1024.000000	-7433.000000	-3246.000000	34.000000	25.000000	-8.000000	-35.000000	-307.000000	-92.000000	1.333008	0.302734	0.258789	0.087891	1.000000	1.000000	1.000000	0.000000
8/25/2022	3:52:18 PM	118094.000000	184290.000000	40527.000000	65833.000000	36579.000000	81952.000000	51831.000000	103954.000000	997.000000	-7451.000000	-3289.000000	43.000000	17.000000	-3.000000	-33.000000	-313.000000	-90.000000	1.333008	0.297852	0.263672	0.092773	1.000000	1.000000	1.000000	0.000000
8/25/2022	3:52:18 PM	118472.000000	185212.000000	40439.000000	66265.000000	36797.000000	82255.000000	53919.000000	104051.000000	997.000000	-7462.000000	-3217.000000	41.000000	34.000000	5.000000	-35.000000	-316.000000	-83.000000	1.372070	0.297852	0.263672	0.092773	1.000000	1.000000	1.000000	0.000000
8/25/2022	3:52:18 PM	118220.000000	184596.000000	40601.000000	66265.000000	36833.000000	81352.000000	53892.000000	101393.000000	975.000000	-7453.000000	-3198.000000	43.000000	26.000000	8.000000	-42.000000	-310.000000	-81.000000	1.362305	0.307617	0.268555	0.087891	1.000000	1.000000	1.000000	0.000000
8/25/2022	3:52:18 PM	118472.000000	185212.000000	40900.000000	66503.000000	36663.000000	81174.000000	53971.000000	102139.000000	1000.000000	-7468.000000	-3231.000000	20.000000	23.000000	-11.000000	-37.000000	-313.000000	-89.000000	1.342773	0.322266	0.258789	0.092773	1.000000	1.000000	1.000000	0.000000
8/25/2022	3:52:18 PM	118094.000000	184903.000000	40513.000000	65600.000000	36736.000000	81531.000000	53866.000000	104344.000000	1040.000000	-7440.000000	-3264.000000	36.000000	15.000000	-3.000000	-27.000000	-310.000000	-89.000000	1.337891	0.327148	0.263672	0.102539	1.000000	1.000000	1.000000	0.000000
8/25/2022	3:52:19 PM	118852.000000	184903.000000	40336.000000	66107.000000	37129.000000	81711.000000	54023.000000	102800.000000	1049.000000	-7455.000000	-3228.000000	43.000000	18.000000	1.000000	-28.000000	-310.000000	-85.000000	1.342773	0.346680	0.258789	0.107422	1.000000	1.000000	1.000000	0.000000
8/25/2022	3:52:19 PM	118725.000000	184596.000000	40103.000000	66186.000000	36894.000000	81952.000000	53400.000000	104442.000000	993.000000	-7460.000000	-3253.000000	29.000000	39.000000	14.000000	-32.000000	-314.000000	-86.000000	1.357422	0.361328	0.263672	0.102539	1.000000	1.000000	1.000000	0.000000
8/25/2022	3:52:19 PM	119235.000000	183985.000000	40705.000000	66305.000000	36724.000000	81591.000000	53555.000000	102233.000000	996.000000	-7445.000000	-3286.000000	56.000000	29.000000	5.000000	-28.000000	-311.000000	-87.000000	1.342773	0.380859	0.263672	0.122070	1.000000	1.000000	1.000000	0.000000
8/25/2022	3:52:19 PM	119107.000000	185521.000000	40750.000000	66423.000000	36858.000000	81292.000000	54129.000000	103663.000000	963.000000	-7445.000000	-3181.000000	59.000000	27.000000	2.000000	-29.000000	-316.000000	-91.000000	1.328125	0.405273	0.258789	0.117187	1.000000	1.000000	1.000000	0.000000
8/25/2022	3:52:19 PM	118346.000000	184903.000000	40661.000000	66543.000000	37005.000000	81711.000000	54129.000000	105433.000000	967.000000	-7481.000000	-3150.000000	53.000000	7.000000	-15.000000	-33.000000	-318.000000	-84.000000	1.328125	0.424805	0.263672	0.122070	1.000000	1.000000	1.000000	0.000000
8/25/2022	3:52:19 PM	118725.000000	183985.000000	40676.000000	66384.000000	36845.000000	81292.000000	54554.000000	104639.000000	980.000000	-7455.000000	-3153.000000	12.000000	39.000000	-11.000000	-32.000000	-309.000000	-82.000000	1.293945	0.458984	0.263672	0.136719	1.000000	1.000000	1.000000	0.000000
8/25/2022	3:52:19 PM	117969.000000	183985.000000	41143.000000	66503.000000	36724.000000	81174.000000	54554.000000	104541.000000	1031.000000	-7458.000000	-3240.000000	20.000000	22.000000	-11.000000	-40.000000	-306.000000	-84.000000	1.264648	0.473633	0.258789	0.146484	1.000000	1.000000	1.000000	0.000000
8/25/2022	3:52:19 PM	118472.000000	184903.000000	40855.000000	65950.000000	36591.000000	80527.000000	54527.000000	102515.000000	986.000000	-7450.000000	-3244.000000	26.000000	34.000000	-13.000000	-37.000000	-312.000000	-79.000000	1.269531	0.473633	0.258789	0.146484	1.000000	1.000000	1.000000	0.000000
8/25/2022	3:52:19 PM	119491.000000	184290.000000	41036.000000	66384.000000	36471.000000	81891.000000	54394.000000	106037.000000	989.000000	-7474.000000	-3206.000000	36.000000	15.000000	-13.000000	-27.000000	-313.000000	-80.000000	1.240234	0.493164	0.258789	0.146484	1.000000	1.000000	1.000000	0.000000
8/25/2022	3:52:19 PM	119749.000000	184596.000000	41127.000000	66265.000000	36579.000000	81055.000000	54076.000000	105734.000000	992.000000	-7443.000000	-3213.000000	27.000000	24.000000	-15.000000	-27.000000	-311.000000	-91.000000	1.206055	0.517578	0.258789	0.166016	1.000000	1.000000	1.000000	0.000000
8/25/2022	3:52:19 PM	119363.000000	185212.000000	40885.000000	66703.000000	36712.000000	81174.000000	55013.000000	107681.000000	1017.000000	-7460.000000	-3189.000000	45.000000	35.000000	-29.000000	-33.000000	-313.000000	-100.000000	1.206055	0.507812	0.263672	0.166016	1.000000	1.000000	1.000000	0.000000
8/25/2022	3:52:19 PM	118220.000000	184290.000000	40810.000000	66423.000000	36567.000000	81233.000000	54634.000000	106545.000000	1095.000000	-7446.000000	-3226.000000	0.000000	6.000000	-6.000000	-33.000000	-314.000000	-93.000000	1.181641	0.512695	0.263672	0.170898	1.000000	1.000000	1.000000	0.000000
8/25/2022	3:52:19 PM	117595.000000	184596.000000	41051.000000	66663.000000	36447.000000	81233.000000	53529.000000	106545.000000	1015.000000	-7434.000000	-3270.000000	20.000000	34.000000	8.000000	-28.000000	-311.000000	-85.000000	1.142578	0.527344	0.268555	0.195312	1.000000	1.000000	1.000000	0.000000
8/25/2022	3:52:19 PM	118979.000000	184903.000000	40631.000000	66783.000000	36663.000000	80819.000000	53606.000000	103566.000000	1007.000000	-7455.000000	-3263.000000	31.000000	35.000000	-3.000000	-27.000000	-304.000000	-86.000000	1.137695	0.517578	0.263672	0.195312	1.000000	1.000000	1.000000	0.000000
8/25/2022	3:52:19 PM	118220.000000	184290.000000	40765.000000	66463.000000	36821.000000	80878.000000	53945.000000	106240.000000	1005.000000	-7453.000000	-3217.000000	33.000000	28.000000	-1.000000	-28.000000	-304.000000	-87.000000	1.108398	0.493164	0.258789	0.209961	1.000000	1.000000	1.000000	0.000000
8/25/2022	3:52:19 PM	117969.000000	184290.000000	40750.000000	66068.000000	36809.000000	81471.000000	52666.000000	104837.000000	1023.000000	-7461.000000	-3171.000000	46.000000	2.000000	-11.000000	-37.000000	-302.000000	-87.000000	1.079102	0.507812	0.263672	0.224609	1.000000	1.000000	1.000000	0.000000
8/25/2022	3:52:19 PM	118852.000000	184290.000000	40780.000000	66107.000000	36591.000000	81471.000000	52099.000000	105333.000000	958.000000	-7451.000000	-3191.000000	20.000000	32.000000	-5.000000	-43.000000	-307.000000	-90.000000	1.020508	0.532227	0.258789	0.244141	1.000000	1.000000	1.000000	0.000000
8/25/2022	3:52:19 PM	118852.000000	184290.000000	40661.000000	66463.000000	36821.000000	81952.000000	52246.000000	104639.000000	1039.000000	-7468.000000	-3240.000000	20.000000	29.000000	-4.000000	-40.000000	-313.000000	-87.000000	0.991211	0.532227	0.263672	0.258789	1.000000	1.000000	1.000000	0.000000
8/25/2022	3:52:19 PM	119235.000000	183681.000000	40631.000000	66503.000000	36784.000000	81352.000000	52050.000000	103086.000000	1000.000000	-7452.000000	-3255.000000	22.000000	25.000000	-11.000000	-33.000000	-315.000000	-89.000000	0.971680	0.522461	0.263672	0.288086	1.000000	1.000000	1.000000	0.000000
8/25/2022	3:52:19 PM	119107.000000	184290.000000	40248.000000	66543.000000	36399.000000	80761.000000	51591.000000	103086.000000	1019.000000	-7469.000000	-3221.000000	43.000000	13.000000	0.000000	-29.000000	-315.000000	-90.000000	0.937500	0.522461	0.263672	0.297852	1.000000	1.000000	1.000000	0.000000
8/25/2022	3:52:19 PM	118346.000000	184596.000000	40527.000000	66226.000000	36280.000000	81651.000000	51329.000000	101578.000000	1028.000000	-7449.000000	-3176.000000	31.000000	22.000000	-13.000000	-32.000000	-310.000000	-90.000000	0.888672	0.522461	0.263672	0.336914	1.000000	1.000000	1.000000	0.000000
8/25/2022	3:52:19 PM	117969.000000	184903.000000	40424.000000	65872.000000	36591.000000	81591.000000	51543.000000	105533.000000	972.000000	-7439.000000	-3229.000000	8.000000	44.000000	-17.000000	-33.000000	-313.000000	-90.000000	0.864258	0.507812	0.263672	0.385742	1.000000	1.000000	1.000000	0.000000
8/25/2022	3:52:19 PM	119107.000000	184290.000000	40263.000000	65445.000000	36530.000000	81114.000000	51400.000000	106853.000000	1021.000000	-7448.000000	-3286.000000	33.000000	22.000000	-7.000000	-32.000000	-314.000000	-84.000000	0.834961	0.498047	0.258789	0.434570	1.000000	1.000000	1.000000	0.000000
8/25/2022	3:52:19 PM	118094.000000	184596.000000	40424.000000	65755.000000	36760.000000	81952.000000	50882.000000	105134.000000	1029.000000	-7464.000000	-3253.000000	24.000000	17.000000	-14.000000	-31.000000	-314.000000	-90.000000	0.810547	0.493164	0.263672	0.454102	1.000000	1.000000	1.000000	0.000000
8/25/2022	3:52:19 PM	118599.000000	184290.000000	40454.000000	65139.000000	36435.000000	81531.000000	51639.000000	107162.000000	1034.000000	-7440.000000	-3190.000000	48.000000	4.000000	-8.000000	-33.000000	-314.000000	-99.000000	0.786133	0.493164	0.258789	0.498047	1.000000	1.000000	1.000000	0.000000
8/25/2022	3:52:19 PM	119491.000000	184903.000000	40587.000000	65484.000000	36411.000000	81591.000000	53170.000000	105734.000000	1007.000000	-7447.000000	-3195.000000	18.000000	36.000000	-9.000000	-29.000000	-313.000000	-87.000000	0.805664	0.468750	0.263672	0.517578	1.000000	1.000000	1.000000	0.000000
8/25/2022	3:52:19 PM	118346.000000	184290.000000	40468.000000	66029.000000	36603.000000	81771.000000	53247.000000	106240.000000	1050.000000	-7461.000000	-3263.000000	22.000000	36.000000	-2.000000	-31.000000	-307.000000	-84.000000	0.776367	0.458984	0.263672	0.561523	1.000000	1.000000	1.000000	0.000000
8/25/2022	3:52:19 PM	119235.000000	184290.000000	40468.000000	65678.000000	36411.000000	81292.000000	53426.000000	106443.000000	1015.000000	-7448.000000	-3241.000000	45.000000	22.000000	6.000000	-32.000000	-305.000000	-90.000000	0.766602	0.468750	0.258789	0.590820	1.000000	1.000000	1.000000	0.000000
8/25/2022	3:52:19 PM	119107.000000	184903.000000	40795.000000	66305.000000	36351.000000	82255.000000	54447.000000	107681.000000	1008.000000	-7442.000000	-3151.000000	57.000000	16.000000	-12.000000	-28.000000	-309.000000	-89.000000	0.747070	0.458984	0.258789	0.620117	1.000000	1.000000	1.000000	0.000000
8/25/2022	3:52:19 PM	118979.000000	183985.000000	40587.000000	65484.000000	36518.000000	81352.000000	53503.000000	108948.000000	1060.000000	-7446.000000	-3230.000000	0.000000	32.000000	-4.000000	-34.000000	-315.000000	-85.000000	0.722656	0.449219	0.258789	0.659180	1.000000	1.000000	1.000000	0.000000
8/25/2022	3:52:19 PM	119363.000000	184290.000000	40572.000000	65872.000000	36530.000000	81114.000000	52942.000000	107369.000000	1030.000000	-7431.000000	-3273.000000	26.000000	27.000000	0.000000	-42.000000	-322.000000	-79.000000	0.722656	0.449219	0.263672	0.693359	1.000000	1.000000	1.000000	0.000000
8/25/2022	3:52:19 PM	119363.000000	183378.000000	40646.000000	65561.000000	36518.000000	81352.000000	53710.000000	108100.000000	1018.000000	-7441.000000	-3305.000000	28.000000	19.000000	18.000000	-38.000000	-321.000000	-79.000000	0.712891	0.439453	0.258789	0.708008	1.000000	1.000000	1.000000	0.000000
8/25/2022	3:52:19 PM	119235.000000	183681.000000	40263.000000	65523.000000	36518.000000	80878.000000	54050.000000	108100.000000	1027.000000	-7447.000000	-3201.000000	54.000000	33.000000	-5.000000	-37.000000	-315.000000	-85.000000	0.712891	0.429687	0.263672	0.742187	1.000000	1.000000	1.000000	0.000000
8/25/2022	3:52:19 PM	118599.000000	183378.000000	40321.000000	66147.000000	36411.000000	80761.000000	53503.000000	107162.000000	1022.000000	-7448.000000	-3136.000000	37.000000	-3.000000	10.000000	-37.000000	-306.000000	-82.000000	0.712891	0.424805	0.258789	0.751953	1.000000	1.000000	1.000000	0.000000
8/25/2022	3:52:19 PM	118599.000000	183378.000000	40321.000000	65833.000000	36351.000000	81114.000000	53581.000000	105433.000000	1014.000000	-7440.000000	-3181.000000	-4.000000	33.000000	14.000000	-32.000000	-305.000000	-79.000000	0.712891	0.424805	0.263672	0.786133	1.000000	1.000000	1.000000	0.000000
8/25/2022	3:52:19 PM	118979.000000	183076.000000	40103.000000	66384.000000	36506.000000	80527.000000	53581.000000	106138.000000	1062.000000	-7472.000000	-3227.000000	12.000000	20.000000	11.000000	-33.000000	-317.000000	-80.000000	0.717773	0.429687	0.258789	0.810547	1.000000	1.000000	1.000000	0.000000
8/25/2022	3:52:19 PM	119107.000000	182775.000000	40365.000000	66226.000000	36351.000000	81411.000000	53788.000000	104442.000000	969.000000	-7435.000000	-3165.000000	-37.000000	42.000000	17.000000	-34.000000	-325.000000	-85.000000	0.712891	0.434570	0.263672	0.825195	1.000000	1.000000	1.000000	0.000000
8/25/2022	3:52:19 PM	117969.000000	182775.000000	40074.000000	65755.000000	36375.000000	81114.000000	53247.000000	106443.000000	1055.000000	-7444.000000	-3259.000000	-18.000000	-5.000000	12.000000	-35.000000	-325.000000	-80.000000	0.712891	0.424805	0.258789	0.839844	1.000000	1.000000	1.000000	0.000000
8/25/2022	3:52:19 PM	118472.000000	183378.000000	39859.000000	66068.000000	36447.000000	80761.000000	53555.000000	105634.000000	1109.000000	-7433.000000	-3136.000000	-45.000000	27.000000	17.000000	-34.000000	-319.000000	-72.000000	0.717773	0.415039	0.263672	0.864258	1.000000	1.000000	1.000000	0.000000
8/25/2022	3:52:19 PM	118852.000000	183681.000000	40278.000000	66703.000000	36687.000000	80878.000000	53426.000000	105333.000000	978.000000	-7418.000000	-2886.000000	-161.000000	47.000000	49.000000	-36.000000	-314.000000	-80.000000	0.717773	0.410156	0.258789	0.864258	1.000000	1.000000	1.000000	0.000000
8/25/2022	3:52:19 PM	117969.000000	184903.000000	40527.000000	66186.000000	36256.000000	80761.000000	53997.000000	105433.000000	1022.000000	-7418.000000	-2828.000000	-281.000000	-64.000000	73.000000	-41.000000	-307.000000	-80.000000	0.717773	0.400391	0.258789	0.888672	1.000000	1.000000	1.000000	0.000000
8/25/2022	3:52:19 PM	119107.000000	182775.000000	41127.000000	65330.000000	36209.000000	80643.000000	53684.000000	105634.000000	1057.000000	-7381.000000	-3607.000000	-487.000000	27.000000	66.000000	-43.000000	-311.000000	-77.000000	0.737305	0.371094	0.258789	0.903320	1.000000	1.000000	1.000000	0.000000
8/25/2022	3:52:19 PM	118725.000000	183681.000000	40885.000000	65755.000000	36675.000000	81352.000000	53788.000000	106750.000000	1030.000000	-7307.000000	-3717.000000	-362.000000	103.000000	95.000000	-50.000000	-316.000000	-72.000000	0.751953	0.366211	0.268555	0.903320	1.000000	1.000000	1.000000	0.000000
8/25/2022	3:52:19 PM	118725.000000	183681.000000	40900.000000	65600.000000	36675.000000	81352.000000	53426.000000	105134.000000	933.000000	-7259.000000	-3296.000000	-436.000000	124.000000	117.000000	-46.000000	-317.000000	-66.000000	0.742187	0.361328	0.263672	0.922852	1.000000	1.000000	1.000000	0.000000
8/25/2022	3:52:19 PM	117844.000000	183681.000000	40735.000000	66384.000000	36699.000000	81771.000000	52617.000000	105333.000000	660.000000	-7189.000000	-3075.000000	-576.000000	-99.000000	118.000000	-43.000000	-324.000000	-72.000000	0.732422	0.346680	0.258789	0.937500	1.000000	1.000000	1.000000	0.000000
8/25/2022	3:52:19 PM	118220.000000	183985.000000	40780.000000	66743.000000	37104.000000	81411.000000	52393.000000	106341.000000	706.000000	-7120.000000	-3672.000000	-694.000000	-344.000000	66.000000	-38.000000	-324.000000	-68.000000	0.751953	0.317383	0.263672	0.932617	1.000000	1.000000	1.000000	0.000000
8/25/2022	3:52:19 PM	118725.000000	183985.000000	40631.000000	66743.000000	37216.000000	81233.000000	51329.000000	105634.000000	695.000000	-7009.000000	-4039.000000	-732.000000	-268.000000	87.000000	-34.000000	-324.000000	-64.000000	0.751953	0.312500	0.263672	0.952148	1.000000	1.000000	1.000000	0.000000
8/25/2022	3:52:19 PM	119878.000000	180694.000000	41021.000000	67595.000000	37404.000000	81233.000000	51855.000000	105433.000000	622.000000	-6880.000000	-4322.000000	-836.000000	-91.000000	43.000000	-29.000000	-328.000000	-70.000000	0.737305	0.307617	0.268555	0.976562	1.000000	1.000000	1.000000	0.000000
8/25/2022	3:52:19 PM	120659.000000	180401.000000	40646.000000	67967.000000	37104.000000	80937.000000	51880.000000	104149.000000	524.000000	-6747.000000	-4657.000000	-741.000000	19.000000	66.000000	-24.000000	-335.000000	-72.000000	0.756836	0.288086	0.258789	0.961914	1.000000	1.000000	1.000000	0.000000
8/25/2022	3:52:19 PM	119620.000000	180401.000000	40557.000000	67967.000000	37030.000000	81114.000000	50627.000000	104051.000000	726.000000	-6569.000000	-4816.000000	-689.000000	-258.000000	-25.000000	-31.000000	-337.000000	-64.000000	0.751953	0.278320	0.263672	0.976562	1.000000	1.000000	1.000000	0.000000
8/25/2022	3:52:19 PM	118599.000000	179817.000000	39659.000000	67349.000000	36797.000000	81174.000000	50882.000000	100933.000000	663.000000	-6591.000000	-5048.000000	-579.000000	-333.000000	49.000000	-25.000000	-343.000000	-62.000000	0.732422	0.273437	0.258789	0.996094	1.000000	1.000000	1.000000	0.000000
8/25/2022	3:52:19 PM	119491.000000	178374.000000	40118.000000	67843.000000	36993.000000	80527.000000	50558.000000	100204.000000	713.000000	-6432.000000	-5231.000000	-541.000000	-211.000000	6.000000	-23.000000	-347.000000	-73.000000	0.732422	0.268555	0.268555	0.986328	1.000000	1.000000	1.000000	0.000000
8/25/2022	3:52:19 PM	118472.000000	177803.000000	40161.000000	68176.000000	37253.000000	80878.000000	51471.000000	99576.000000	694.000000	-6378.000000	-5248.000000	-433.000000	-6.000000	74.000000	-16.000000	-346.000000	-64.000000	0.747070	0.253906	0.263672	0.976562	1.000000	1.000000	1.000000	0.000000
8/25/2022	3:52:19 PM	120267.000000	177803.000000	39930.000000	67472.000000	37054.000000	80468.000000	51400.000000	99934.000000	507.000000	-6350.000000	-5406.000000	-394.000000	124.000000	88.000000	-17.000000	-342.000000	-64.000000	0.737305	0.249023	0.263672	1.000977	1.000000	1.000000	1.000000	0.000000
8/25/2022	3:52:19 PM	121185.000000	177803.000000	40527.000000	68176.000000	36748.000000	80120.000000	51759.000000	101116.000000	504.000000	-6343.000000	-5495.000000	-229.000000	10.000000	49.000000	-13.000000	-338.000000	-72.000000	0.722656	0.249023	0.263672	1.005859	1.000000	1.000000	1.000000	0.000000
8/25/2022	3:52:19 PM	120007.000000	177236.000000	40498.000000	67719.000000	36495.000000	80062.000000	51687.000000	101393.000000	570.000000	-6224.000000	-5475.000000	-102.000000	-101.000000	42.000000	-14.000000	-337.000000	-76.000000	0.717773	0.229492	0.263672	1.000977	1.000000	1.000000	1.000000	0.000000
8/25/2022	3:52:19 PM	120921.000000	177519.000000	40424.000000	67595.000000	36833.000000	80062.000000	50789.000000	100841.000000	438.000000	-6268.000000	-5423.000000	-37.000000	-21.000000	9.000000	-16.000000	-343.000000	-71.000000	0.708008	0.234375	0.263672	1.020508	1.000000	1.000000	1.000000	0.000000
8/25/2022	3:52:19 PM	120397.000000	176672.000000	40765.000000	67065.000000	37253.000000	80527.000000	51093.000000	99309.000000	562.000000	-6238.000000	-5517.000000	28.000000	24.000000	11.000000	-14.000000	-344.000000	-66.000000	0.688477	0.219727	0.263672	1.030273	1.000000	1.000000	1.000000	0.000000
8/25/2022	3:52:19 PM	122252.000000	176392.000000	40601.000000	67309.000000	36591.000000	80352.000000	50719.000000	98779.000000	542.000000	-6255.000000	-5596.000000	144.000000	56.000000	3.000000	-12.000000	-345.000000	-65.000000	0.683594	0.224609	0.258789	1.015625	1.000000	1.000000	1.000000	0.000000
8/25/2022	3:52:19 PM	121583.000000	177236.000000	40278.000000	67105.000000	36724.000000	79947.000000	50999.000000	99844.000000	535.000000	-6277.000000	-5479.000000	279.000000	-11.000000	-11.000000	-9.000000	-347.000000	-62.000000	0.683594	0.219727	0.263672	1.010742	1.000000	1.000000	1.000000	0.000000
8/25/2022	3:52:19 PM	121716.000000	177519.000000	40542.000000	67513.000000	36435.000000	79775.000000	51591.000000	99934.000000	633.000000	-6297.000000	-5297.000000	353.000000	-21.000000	4.000000	-15.000000	-342.000000	-62.000000	0.659180	0.205078	0.258789	1.030273	1.000000	1.000000	1.000000	0.000000
8/25/2022	3:52:19 PM	121983.000000	176672.000000	40513.000000	67472.000000	36675.000000	79206.000000	51977.000000	100658.000000	609.000000	-6367.000000	-5167.000000	376.000000	62.000000	50.000000	-18.000000	-349.000000	-71.000000	0.639648	0.200195	0.263672	1.015625	1.000000	1.000000	1.000000	0.000000
8/25/2022	3:52:19 PM	120921.000000	177803.000000	40409.000000	67513.000000	36603.000000	80062.000000	52270.000000	99934.000000	657.000000	-6453.000000	-5119.000000	430.000000	114.000000	137.000000	-15.000000	-346.000000	-68.000000	0.625000	0.205078	0.258789	1.020508	1.000000	1.000000	1.000000	0.000000
8/25/2022	3:52:19 PM	121318.000000	177803.000000	40631.000000	67554.000000	36627.000000	79604.000000	52147.000000	102233.000000	415.000000	-6545.000000	-5036.000000	457.000000	132.000000	112.000000	-17.000000	-336.000000	-66.000000	0.605469	0.200195	0.263672	1.025391	1.000000	1.000000	1.000000	0.000000
8/25/2022	3:52:19 PM	120921.000000	177519.000000	40646.000000	67636.000000	36894.000000	80178.000000	51904.000000	100204.000000	495.000000	-6612.000000	-4985.000000	575.000000	81.000000	102.000000	-19.000000	-340.000000	-72.000000	0.590820	0.195312	0.263672	1.015625	1.000000	1.000000	1.000000	0.000000
8/25/2022	3:52:19 PM	121716.000000	177519.000000	40720.000000	67678.000000	36809.000000	79661.000000	51880.000000	101301.000000	458.000000	-6589.000000	-4886.000000	634.000000	146.000000	133.000000	-15.000000	-347.000000	-73.000000	0.590820	0.195312	0.258789	1.020508	1.000000	1.000000	1.000000	0.000000
8/25/2022	3:52:19 PM	120659.000000	176954.000000	40885.000000	67227.000000	36423.000000	80236.000000	51663.000000	102045.000000	494.000000	-6757.000000	-4623.000000	670.000000	185.000000	116.000000	-13.000000	-345.000000	-75.000000	0.595703	0.205078	0.258789	1.030273	1.000000	1.000000	1.000000	0.000000
8/25/2022	3:52:19 PM	119749.000000	177519.000000	40631.000000	66743.000000	36651.000000	79890.000000	51639.000000	99844.000000	349.000000	-6822.000000	-4564.000000	724.000000	229.000000	113.000000	-18.000000	-342.000000	-75.000000	0.585937	0.205078	0.258789	1.020508	1.000000	1.000000	1.000000	0.000000
8/25/2022	3:52:19 PM	119620.000000	178088.000000	40587.000000	67390.000000	36736.000000	80236.000000	51639.000000	100933.000000	452.000000	-6977.000000	-4199.000000	740.000000	190.000000	94.000000	-21.000000	-340.000000	-73.000000	0.571289	0.205078	0.263672	1.015625	1.000000	1.000000	1.000000	0.000000
8/25/2022	3:52:19 PM	118725.000000	180109.000000	40439.000000	67349.000000	36809.000000	80120.000000	51234.000000	100750.000000	405.000000	-7015.000000	-3957.000000	693.000000	231.000000	96.000000	-25.000000	-331.000000	-73.000000	0.541992	0.205078	0.283203	1.025391	1.000000	1.000000	1.000000	0.000000
8/25/2022	3:52:19 PM	118852.000000	180694.000000	40646.000000	67349.000000	36845.000000	80585.000000	51447.000000	100933.000000	487.000000	-7150.000000	-3758.000000	667.000000	166.000000	70.000000	-26.000000	-330.000000	-68.000000	0.551758	0.200195	0.283203	1.005859	1.000000	1.000000	1.000000	0.000000
8/25/2022	3:52:19 PM	119749.000000	182475.000000	40601.000000	66503.000000	36736.000000	80236.000000	51234.000000	104149.000000	458.000000	-7216.000000	-3588.000000	580.000000	130.000000	71.000000	-19.000000	-339.000000	-71.000000	0.551758	0.200195	0.288086	1.015625	1.000000	1.000000	1.000000	0.000000
8/25/2022	3:52:19 PM	118979.000000	182175.000000	40631.000000	67227.000000	36591.000000	81055.000000	51305.000000	100567.000000	411.000000	-7297.000000	-3422.000000	512.000000	135.000000	71.000000	-16.000000	-344.000000	-76.000000	0.556641	0.190430	0.283203	1.015625	1.000000	1.000000	1.000000	0.000000
8/25/2022	3:52:19 PM	119620.000000	182175.000000	40750.000000	66543.000000	36375.000000	80352.000000	51046.000000	99398.000000	417.000000	-7355.000000	-3231.000000	386.000000	143.000000	72.000000	-23.000000	-338.000000	-79.000000	0.556641	0.209961	0.288086	1.005859	1.000000	1.000000	1.000000	0.000000
8/25/2022	3:52:19 PM	118346.000000	182475.000000	40855.000000	66623.000000	36435.000000	80294.000000	51329.000000	102991.000000	330.000000	-7393.000000	-3154.000000	255.000000	139.000000	46.000000	-26.000000	-331.000000	-76.000000	0.561523	0.219727	0.283203	1.010742	1.000000	1.000000	1.000000	0.000000
8/25/2022	3:52:20 PM	118599.000000	182475.000000	40825.000000	66265.000000	36197.000000	80062.000000	51567.000000	103278.000000	420.000000	-7413.000000	-3251.000000	181.000000	15.000000	20.000000	-26.000000	-328.000000	-73.000000	0.576172	0.219727	0.278320	1.010742	1.000000	1.000000	1.000000	0.000000
8/25/2022	3:52:20 PM	118599.000000	181877.000000	40825.000000	66384.000000	36579.000000	80352.000000	51471.000000	103182.000000	446.000000	-7422.000000	-3342.000000	115.000000	3.000000	4.000000	-26.000000	-330.000000	-79.000000	0.551758	0.219727	0.283203	1.010742	1.000000	1.000000	1.000000	0.000000
8/25/2022	3:52:20 PM	120137.000000	182175.000000	40795.000000	66344.000000	36459.000000	80178.000000	51352.000000	102139.000000	378.000000	-7387.000000	-3328.000000	81.000000	25.000000	-13.000000	-22.000000	-333.000000	-85.000000	0.537109	0.214844	0.283203	1.020508	1.000000	1.000000	1.000000	0.000000
8/25/2022	3:52:20 PM	117969.000000	183681.000000	40103.000000	66663.000000	36506.000000	80294.000000	51855.000000	105234.000000	500.000000	-7414.000000	-3371.000000	36.000000	40.000000	-6.000000	-17.000000	-334.000000	-83.000000	0.541992	0.214844	0.283203	1.000977	1.000000	1.000000	1.000000	0.000000
8/25/2022	3:52:20 PM	120007.000000	183681.000000	40365.000000	66463.000000	36197.000000	79150.000000	51519.000000	103374.000000	473.000000	-7421.000000	-3484.000000	-13.000000	45.000000	-9.000000	-23.000000	-335.000000	-79.000000	0.551758	0.214844	0.283203	1.010742	1.000000	1.000000	1.000000	0.000000
8/25/2022	3:52:20 PM	119235.000000	183681.000000	40513.000000	66305.000000	36186.000000	79775.000000	51210.000000	103857.000000	466.000000	-7366.000000	-3488.000000	24.000000	30.000000	-6.000000	-24.000000	-336.000000	-82.000000	0.615234	0.249023	0.283203	1.030273	1.000000	1.000000	1.000000	0.000000
8/25/2022	3:52:20 PM	119107.000000	184903.000000	40527.000000	66107.000000	36567.000000	79718.000000	51567.000000	105035.000000	478.000000	-7430.000000	-3459.000000	25.000000	19.000000	-8.000000	-27.000000	-337.000000	-82.000000	0.590820	0.253906	0.283203	1.005859	1.000000	1.000000	1.000000	0.000000
8/25/2022	3:52:20 PM	120659.000000	184290.000000	40351.000000	66623.000000	36186.000000	79718.000000	51735.000000	103566.000000	449.000000	-7375.000000	-3465.000000	14.000000	35.000000	3.000000	-36.000000	-334.000000	-83.000000	0.541992	0.244141	0.283203	1.010742	1.000000	1.000000	1.000000	0.000000
8/25/2022	3:52:20 PM	120397.000000	184903.000000	40720.000000	66147.000000	36399.000000	79832.000000	51711.000000	104246.000000	440.000000	-7392.000000	-3506.000000	33.000000	50.000000	-21.000000	-29.000000	-331.000000	-82.000000	0.551758	0.249023	0.288086	1.010742	1.000000	1.000000	1.000000	0.000000
8/25/2022	3:52:20 PM	120397.000000	183681.000000	41066.000000	66703.000000	36304.000000	80178.000000	51352.000000	103374.000000	436.000000	-7381.000000	-3447.000000	33.000000	13.000000	-20.000000	-23.000000	-331.000000	-80.000000	0.532227	0.249023	0.283203	1.015625	1.000000	1.000000	1.000000	0.000000
8/25/2022	3:52:20 PM	119363.000000	183985.000000	40661.000000	66384.000000	36138.000000	80352.000000	51928.000000	101858.000000	537.000000	-7410.000000	-3478.000000	2.000000	25.000000	-9.000000	-24.000000	-328.000000	-73.000000	0.527344	0.239258	0.288086	1.020508	1.000000	1.000000	1.000000	0.000000
8/25/2022	3:52:20 PM	119363.000000	182175.000000	40720.000000	66265.000000	36483.000000	80468.000000	52001.000000	105134.000000	458.000000	-7368.000000	-3516.000000	34.000000	11.000000	-2.000000	-23.000000	-324.000000	-73.000000	0.546875	0.249023	0.283203	1.000977	1.000000	1.000000	1.000000	0.000000
8/25/2022	3:52:20 PM	120267.000000	183076.000000	40661.000000	65990.000000	36387.000000	79547.000000	51880.000000	103857.000000	443.000000	-7398.000000	-3534.000000	40.000000	45.000000	-11.000000	-22.000000	-327.000000	-72.000000	0.498047	0.244141	0.283203	1.005859	1.000000	1.000000	1.000000	0.000000
8/25/2022	3:52:20 PM	119878.000000	182775.000000	40676.000000	66423.000000	36363.000000	79661.000000	52196.000000	104246.000000	431.000000	-7414.000000	-3492.000000	41.000000	30.000000	-28.000000	-22.000000	-337.000000	-80.000000	0.454102	0.234375	0.283203	1.020508	1.000000	1.000000	1.000000	0.000000
8/25/2022	3:52:20 PM	120137.000000	183076.000000	40661.000000	66384.000000	36150.000000	79604.000000	52050.000000	102800.000000	447.000000	-7370.000000	-3368.000000	64.000000	7.000000	-31.000000	-18.000000	-338.000000	-84.000000	0.463867	0.229492	0.288086	1.010742	1.000000	1.000000	1.000000	0.000000
8/25/2022	3:52:20 PM	120921.000000	183076.000000	40572.000000	66863.000000	36174.000000	79376.000000	51807.000000	102045.000000	520.000000	-7418.000000	-3449.000000	-2.000000	21.000000	-24.000000	-22.000000	-329.000000	-77.000000	0.468750	0.249023	0.283203	1.010742	1.000000	1.000000	1.000000	0.000000
8/25/2022	3:52:20 PM	119878.000000	183076.000000	40468.000000	66783.000000	36010.000000	79890.000000	52074.000000	99576.000000	552.000000	-7358.000000	-3497.000000	26.000000	23.000000	-29.000000	-25.000000	-331.000000	-80.000000	0.468750	0.239258	0.278320	1.030273	1.000000	1.000000	1.000000	0.000000
8/25/2022	3:52:20 PM	119878.000000	183378.000000	40616.000000	66305.000000	36233.000000	80236.000000	51904.000000	101951.000000	535.000000	-7383.000000	-3534.000000	23.000000	31.000000	8.000000	-21.000000	-332.000000	-81.000000	0.483398	0.249023	0.288086	1.020508	1.000000	1.000000	1.000000	0.000000
8/25/2022	3:52:20 PM	120007.000000	183378.000000	40263.000000	66384.000000	35905.000000	79661.000000	51735.000000	101024.000000	509.000000	-7402.000000	-3502.000000	35.000000	38.000000	1.000000	-22.000000	-332.000000	-74.000000	0.444336	0.244141	0.283203	1.035156	1.000000	1.000000	1.000000	0.000000
8/25/2022	3:52:20 PM	118725.000000	183076.000000	40542.000000	67105.000000	36150.000000	79947.000000	52270.000000	101671.000000	471.000000	-7375.000000	-3497.000000	42.000000	19.000000	1.000000	-24.000000	-332.000000	-67.000000	0.444336	0.244141	0.283203	1.025391	1.000000	1.000000	1.000000	0.000000
8/25/2022	3:52:20 PM	118725.000000	183378.000000	40527.000000	66783.000000	35789.000000	79890.000000	51807.000000	101116.000000	442.000000	-7400.000000	-3461.000000	40.000000	27.000000	-2.000000	-28.000000	-328.000000	-72.000000	0.449219	0.253906	0.283203	1.020508	1.000000	1.000000	1.000000	0.000000
8/25/2022	3:52:20 PM	118472.000000	182475.000000	40513.000000	66384.000000	35975.000000	79604.000000	52393.000000	101951.000000	538.000000	-7401.000000	-3488.000000	41.000000	-1.000000	-26.000000	-25.000000	-334.000000	-76.000000	0.424805	0.253906	0.283203	1.030273	1.000000	1.000000	1.000000	0.000000
8/25/2022	3:52:20 PM	119107.000000	183378.000000	40705.000000	66423.000000	36127.000000	79319.000000	51495.000000	100750.000000	514.000000	-7390.000000	-3435.000000	44.000000	25.000000	-7.000000	-24.000000	-335.000000	-74.000000	0.405273	0.249023	0.283203	1.025391	1.000000	1.000000	1.000000	0.000000
8/25/2022	3:52:20 PM	118725.000000	184596.000000	40454.000000	66186.000000	35674.000000	79376.000000	52492.000000	102515.000000	522.000000	-7402.000000	-3470.000000	26.000000	37.000000	-12.000000	-31.000000	-336.000000	-74.000000	0.390625	0.249023	0.278320	1.010742	1.000000	1.000000	1.000000	0.000000
8/25/2022	3:52:20 PM	118346.000000	185521.000000	40060.000000	65872.000000	35882.000000	80120.000000	51928.000000	101301.000000	523.000000	-7384.000000	-3469.000000	23.000000	19.000000	-4.000000	-31.000000	-331.000000	-75.000000	0.375977	0.258789	0.283203	1.030273	1.000000	1.000000	1.000000	0.000000
8/25/2022	3:52:20 PM	118599.000000	184903.000000	40468.000000	67105.000000	35663.000000	80410.000000	52892.000000	105134.000000	454.000000	-7412.000000	-3472.000000	26.000000	29.000000	-8.000000	-31.000000	-326.000000	-77.000000	0.380859	0.278320	0.283203	1.010742	1.000000	1.000000	1.000000	0.000000
8/25/2022	3:52:20 PM	119749.000000	184290.000000	40646.000000	66543.000000	35629.000000	79775.000000	51400.000000	102991.000000	502.000000	-7401.000000	-3496.000000	42.000000	8.000000	-18.000000	-31.000000	-333.000000	-76.000000	0.356445	0.288086	0.283203	1.010742	1.000000	1.000000	1.000000	0.000000
8/25/2022	3:52:20 PM	119235.000000	184290.000000	40424.000000	66344.000000	35663.000000	80352.000000	52221.000000	102991.000000	465.000000	-7377.000000	-3430.000000	64.000000	42.000000	-14.000000	-27.000000	-326.000000	-76.000000	0.356445	0.292969	0.283203	1.020508	1.000000	1.000000	1.000000	0.000000
8/25/2022	3:52:20 PM	119107.000000	183681.000000	40601.000000	66226.000000	35720.000000	80236.000000	51952.000000	102139.000000	534.000000	-7393.000000	-3420.000000	13.000000	16.000000	-17.000000	-23.000000	-326.000000	-75.000000	0.351562	0.283203	0.288086	1.005859	1.000000	1.000000	1.000000	0.000000
8/25/2022	3:52:20 PM	118979.000000	184596.000000	40676.000000	66384.000000	35447.000000	80236.000000	51639.000000	101116.000000	506.000000	-7373.000000	-3504.000000	21.000000	14.000000	-22.000000	-22.000000	-331.000000	-74.000000	0.322266	0.258789	0.283203	0.991211	1.000000	1.000000	1.000000	0.000000
8/25/2022	3:52:20 PM	118852.000000	184290.000000	40542.000000	66623.000000	35870.000000	80468.000000	51305.000000	102045.000000	545.000000	-7390.000000	-3533.000000	33.000000	26.000000	-11.000000	-25.000000	-333.000000	-80.000000	0.317383	0.253906	0.288086	0.996094	1.000000	1.000000	1.000000	0.000000
8/25/2022	3:52:20 PM	118852.000000	183985.000000	40248.000000	66186.000000	35503.000000	80236.000000	51281.000000	99398.000000	576.000000	-7379.000000	-3460.000000	43.000000	27.000000	-12.000000	-28.000000	-329.000000	-76.000000	0.312500	0.263672	0.283203	0.976562	1.000000	1.000000	1.000000	0.000000
8/25/2022	3:52:20 PM	119107.000000	184290.000000	40587.000000	65990.000000	35526.000000	80352.000000	51400.000000	101764.000000	495.000000	-7379.000000	-3436.000000	41.000000	21.000000	-5.000000	-32.000000	-324.000000	-75.000000	0.297852	0.258789	0.283203	0.976562	1.000000	1.000000	1.000000	0.000000
8/25/2022	3:52:20 PM	119107.000000	184596.000000	40439.000000	66344.000000	35652.000000	80294.000000	51376.000000	99309.000000	528.000000	-7391.000000	-3468.000000	30.000000	34.000000	-15.000000	-24.000000	-328.000000	-79.000000	0.268555	0.258789	0.283203	0.966797	1.000000	1.000000	1.000000	0.000000
8/25/2022	3:52:20 PM	119620.000000	183985.000000	40527.000000	66147.000000	35629.000000	79832.000000	51210.000000	100385.000000	578.000000	-7410.000000	-3478.000000	31.000000	17.000000	0.000000	-21.000000	-335.000000	-82.000000	0.278320	0.283203	0.283203	0.937500	1.000000	1.000000	1.000000	0.000000
8/25/2022	3:52:20 PM	117969.000000	183681.000000	40513.000000	66543.000000	35720.000000	80996.000000	51687.000000	102800.000000	551.000000	-7374.000000	-3472.000000	40.000000	12.000000	6.000000	-21.000000	-333.000000	-75.000000	0.283203	0.307617	0.283203	0.952148	1.000000	1.000000	1.000000	0.000000
8/25/2022	3:52:20 PM	118346.000000	184290.000000	40616.000000	66226.000000	35893.000000	80702.000000	51543.000000	102895.000000	488.000000	-7406.000000	-3437.000000	43.000000	34.000000	4.000000	-24.000000	-331.000000	-71.000000	0.253906	0.283203	0.283203	0.942383	1.000000	1.000000	1.000000	0.000000
8/25/2022	3:52:20 PM	118220.000000	184290.000000	40542.000000	65872.000000	35917.000000	81233.000000	51471.000000	101116.000000	439.000000	-7384.000000	-3484.000000	31.000000	38.000000	-8.000000	-26.000000	-329.000000	-79.000000	0.263672	0.292969	0.288086	0.908203	1.000000	1.000000	1.000000	0.000000
8/25/2022	3:52:20 PM	118094.000000	184596.000000	40395.000000	65950.000000	35801.000000	80819.000000	51735.000000	103954.000000	539.000000	-7390.000000	-3551.000000	37.000000	17.000000	-19.000000	-21.000000	-327.000000	-81.000000	0.263672	0.292969	0.278320	0.898437	1.000000	1.000000	1.000000	0.000000
8/25/2022	3:52:20 PM	117844.000000	184290.000000	40557.000000	65716.000000	35674.000000	80819.000000	51234.000000	102233.000000	581.000000	-7401.000000	-3475.000000	41.000000	5.000000	-19.000000	-26.000000	-331.000000	-76.000000	0.258789	0.302734	0.288086	0.898437	1.000000	1.000000	1.000000	0.000000
8/25/2022	3:52:20 PM	117969.000000	184596.000000	40351.000000	66029.000000	35526.000000	80527.000000	51187.000000	103954.000000	550.000000	-7394.000000	-3398.000000	46.000000	14.000000	-23.000000	-26.000000	-333.000000	-75.000000	0.244141	0.288086	0.278320	0.878906	1.000000	1.000000	1.000000	0.000000
8/25/2022	3:52:20 PM	118725.000000	183985.000000	40205.000000	65177.000000	35526.000000	80585.000000	51567.000000	103663.000000	573.000000	-7397.000000	-3449.000000	28.000000	31.000000	-4.000000	-24.000000	-332.000000	-75.000000	0.253906	0.288086	0.283203	0.854492	1.000000	1.000000	1.000000	0.000000
8/25/2022	3:52:20 PM	118725.000000	184903.000000	40292.000000	66226.000000	35812.000000	80527.000000	51257.000000	104541.000000	563.000000	-7391.000000	-3521.000000	20.000000	38.000000	-11.000000	-24.000000	-329.000000	-70.000000	0.253906	0.312500	0.283203	0.859375	1.000000	1.000000	1.000000	0.000000
8/25/2022	3:52:20 PM	118346.000000	184596.000000	40572.000000	65523.000000	35870.000000	80996.000000	51234.000000	103470.000000	560.000000	-7400.000000	-3482.000000	64.000000	6.000000	-3.000000	-25.000000	-331.000000	-73.000000	0.278320	0.375977	0.283203	0.844727	1.000000	1.000000	1.000000	0.000000
8/25/2022	3:52:20 PM	117222.000000	183681.000000	40735.000000	65833.000000	35905.000000	81531.000000	50975.000000	104246.000000	559.000000	-7414.000000	-3426.000000	35.000000	20.000000	-15.000000	-26.000000	-329.000000	-76.000000	0.263672	0.356445	0.278320	0.834961	1.000000	1.000000	1.000000	0.000000
8/25/2022	3:52:20 PM	117719.000000	184903.000000	40321.000000	65639.000000	36010.000000	81055.000000	50952.000000	103278.000000	580.000000	-7375.000000	-3430.000000	15.000000	30.000000	14.000000	-32.000000	-332.000000	-76.000000	0.249023	0.361328	0.283203	0.825195	1.000000	1.000000	1.000000	0.000000
8/25/2022	3:52:20 PM	117470.000000	184903.000000	40542.000000	65716.000000	35893.000000	80937.000000	50999.000000	101858.000000	559.000000	-7417.000000	-3479.000000	12.000000	41.000000	2.000000	-34.000000	-331.000000	-80.000000	0.283203	0.356445	0.288086	0.810547	1.000000	1.000000	1.000000	0.000000
8/25/2022	3:52:20 PM	117346.000000	183378.000000	40409.000000	66503.000000	35697.000000	80236.000000	51069.000000	105134.000000	554.000000	-7386.000000	-3527.000000	35.000000	-2.000000	-3.000000	-27.000000	-329.000000	-77.000000	0.263672	0.336914	0.283203	0.805664	1.000000	1.000000	1.000000	0.000000
8/25/2022	3:52:20 PM	117099.000000	183681.000000	40234.000000	66344.000000	35732.000000	79832.000000	50905.000000	104541.000000	541.000000	-7417.000000	-3483.000000	51.000000	33.000000	1.000000	-28.000000	-327.000000	-77.000000	0.239258	0.322266	0.283203	0.810547	1.000000	1.000000	1.000000	0.000000
8/25/2022	3:52:20 PM	116607.000000	183378.000000	40263.000000	66147.000000	35583.000000	80761.000000	50558.000000	105634.000000	518.000000	-7402.000000	-3403.000000	38.000000	21.000000	5.000000	-32.000000	-324.000000	-73.000000	0.224609	0.312500	0.278320	0.795898	1.000000	1.000000	1.000000	0.000000
8/25/2022	3:52:20 PM	117222.000000	184596.000000	40147.000000	65484.000000	35893.000000	80120.000000	51069.000000	104936.000000	500.000000	-7399.000000	-3431.000000	40.000000	34.000000	-6.000000	-29.000000	-327.000000	-76.000000	0.244141	0.336914	0.283203	0.781250	1.000000	1.000000	1.000000	0.000000
8/25/2022	3:52:20 PM	118220.000000	184290.000000	40351.000000	65678.000000	35847.000000	79775.000000	50673.000000	100841.000000	531.000000	-7404.000000	-3468.000000	28.000000	21.000000	-13.000000	-22.000000	-324.000000	-76.000000	0.283203	0.361328	0.283203	0.776367	1.000000	1.000000	1.000000	0.000000
8/25/2022	3:52:20 PM	117595.000000	184290.000000	40409.000000	65794.000000	35732.000000	79547.000000	50882.000000	101116.000000	558.000000	-7383.000000	-3481.000000	30.000000	19.000000	-7.000000	-28.000000	-325.000000	-74.000000	0.253906	0.351562	0.283203	0.756836	1.000000	1.000000	1.000000	0.000000
8/25/2022	3:52:20 PM	117470.000000	183378.000000	40278.000000	65484.000000	35572.000000	80062.000000	50859.000000	102421.000000	566.000000	-7399.000000	-3508.000000	43.000000	30.000000	1.000000	-36.000000	-334.000000	-81.000000	0.258789	0.351562	0.283203	0.751953	1.000000	1.000000	1.000000	0.000000
8/25/2022	3:52:20 PM	117969.000000	183985.000000	40060.000000	65369.000000	35663.000000	80236.000000	50719.000000	99309.000000	575.000000	-7404.000000	-3450.000000	34.000000	27.000000	7.000000	-24.000000	-332.000000	-85.000000	0.258789	0.341797	0.283203	0.742187	1.000000	1.000000	1.000000	0.000000
8/25/2022	3:52:20 PM	117719.000000	184290.000000	39959.000000	65253.000000	35789.000000	80352.000000	50420.000000	102515.000000	504.000000	-7395.000000	-3419.000000	37.000000	30.000000	7.000000	-16.000000	-333.000000	-83.000000	0.239258	0.317383	0.283203	0.727539	1.000000	1.000000	1.000000	0.000000
8/25/2022	3:52:20 PM	118725.000000	183681.000000	39773.000000	65794.000000	36033.000000	79547.000000	50650.000000	103182.000000	536.000000	-7393.000000	-3477.000000	39.000000	17.000000	-6.000000	-24.000000	-333.000000	-74.000000	0.249023	0.327148	0.283203	0.727539	1.000000	1.000000	1.000000	0.000000
8/25/2022	3:52:20 PM	117969.000000	184290.000000	39916.000000	65139.000000	36209.000000	80005.000000	50743.000000	101951.000000	554.000000	-7406.000000	-3513.000000	18.000000	37.000000	1.000000	-23.000000	-325.000000	-71.000000	0.239258	0.317383	0.278320	0.717773	1.000000	1.000000	1.000000	0.000000
8/25/2022	3:52:20 PM	117969.000000	185212.000000	40103.000000	66623.000000	36115.000000	80527.000000	50999.000000	101858.000000	539.000000	-7385.000000	-3439.000000	58.000000	10.000000	-6.000000	-21.000000	-332.000000	-77.000000	0.229492	0.292969	0.268555	0.708008	1.000000	1.000000	1.000000	0.000000
8/25/2022	3:52:20 PM	118346.000000	184596.000000	39830.000000	65950.000000	36162.000000	80005.000000	50329.000000	101951.000000	588.000000	-7395.000000	-3439.000000	31.000000	30.000000	1.000000	-31.000000	-336.000000	-79.000000	0.224609	0.278320	0.263672	0.708008	1.000000	1.000000	1.000000	0.000000
8/25/2022	3:52:20 PM	117470.000000	183378.000000	40292.000000	65600.000000	36233.000000	80352.000000	50952.000000	102139.000000	551.000000	-7395.000000	-3462.000000	35.000000	22.000000	1.000000	-29.000000	-336.000000	-75.000000	0.224609	0.278320	0.263672	0.703125	1.000000	1.000000	1.000000	0.000000
8/25/2022	3:52:20 PM	117346.000000	183681.000000	39859.000000	65292.000000	36327.000000	80643.000000	50835.000000	104639.000000	559.000000	-7401.000000	-3477.000000	28.000000	35.000000	17.000000	-27.000000	-334.000000	-75.000000	0.244141	0.302734	0.263672	0.678711	1.000000	1.000000	1.000000	0.000000
8/25/2022	3:52:20 PM	116976.000000	184596.000000	39802.000000	64910.000000	36316.000000	80120.000000	51093.000000	104837.000000	471.000000	-7415.000000	-3455.000000	35.000000	31.000000	3.000000	-26.000000	-332.000000	-79.000000	0.219727	0.278320	0.263672	0.678711	1.000000	1.000000	1.000000	0.000000
8/25/2022	3:52:20 PM	116976.000000	183985.000000	40017.000000	65024.000000	36304.000000	80352.000000	51093.000000	103086.000000	501.000000	-7392.000000	-3433.000000	53.000000	20.000000	-4.000000	-29.000000	-332.000000	-84.000000	0.224609	0.268555	0.268555	0.668945	1.000000	1.000000	1.000000	0.000000
8/25/2022	3:52:20 PM	117719.000000	184903.000000	39844.000000	65833.000000	36435.000000	79947.000000	51093.000000	102991.000000	514.000000	-7395.000000	-3436.000000	23.000000	27.000000	-9.000000	-32.000000	-329.000000	-80.000000	0.229492	0.283203	0.263672	0.654297	1.000000	1.000000	1.000000	0.000000
8/25/2022	3:52:20 PM	117719.000000	183985.000000	39945.000000	65523.000000	36080.000000	79947.000000	50905.000000	103086.000000	579.000000	-7412.000000	-3498.000000	21.000000	27.000000	-4.000000	-27.000000	-327.000000	-69.000000	0.219727	0.263672	0.263672	0.639648	1.000000	1.000000	1.000000	0.000000
8/25/2022	3:52:20 PM	116853.000000	183681.000000	39959.000000	65369.000000	35847.000000	79490.000000	50835.000000	105035.000000	532.000000	-7396.000000	-3498.000000	18.000000	24.000000	8.000000	-26.000000	-327.000000	-65.000000	0.214844	0.263672	0.263672	0.649414	1.000000	1.000000	1.000000	0.000000
8/25/2022	3:52:20 PM	117719.000000	183076.000000	39830.000000	65872.000000	36103.000000	79947.000000	50999.000000	104442.000000	555.000000	-7416.000000	-3469.000000	46.000000	22.000000	-10.000000	-31.000000	-329.000000	-67.000000	0.214844	0.258789	0.263672	0.629883	1.000000	1.000000	1.000000	0.000000
8/25/2022	3:52:20 PM	117969.000000	183985.000000	39730.000000	65794.000000	36138.000000	79490.000000	50859.000000	103086.000000	526.000000	-7404.000000	-3413.000000	36.000000	31.000000	2.000000	-32.000000	-329.000000	-67.000000	0.205078	0.253906	0.263672	0.620117	1.000000	1.000000	1.000000	0.000000
8/25/2022	3:52:20 PM	117719.000000	182775.000000	39575.000000	66029.000000	36115.000000	79661.000000	51140.000000	104051.000000	486.000000	-7394.000000	-3428.000000	43.000000	27.000000	-10.000000	-29.000000	-329.000000	-73.000000	0.200195	0.244141	0.263672	0.625000	1.000000	1.000000	1.000000	0.000000
8/25/2022	3:52:20 PM	118094.000000	183076.000000	39617.000000	66265.000000	36010.000000	78869.000000	50859.000000	101486.000000	584.000000	-7408.000000	-3503.000000	25.000000	30.000000	-11.000000	-31.000000	-332.000000	-76.000000	0.214844	0.253906	0.263672	0.610352	1.000000	1.000000	1.000000	0.000000
8/25/2022	3:52:20 PM	118094.000000	183681.000000	39575.000000	65716.000000	36304.000000	78757.000000	51093.000000	101858.000000	550.000000	-7401.000000	-3451.000000	43.000000	12.000000	-9.000000	-29.000000	-330.000000	-66.000000	0.200195	0.249023	0.263672	0.615234	1.000000	1.000000	1.000000	0.000000
8/25/2022	3:52:20 PM	118472.000000	183076.000000	39575.000000	66265.000000	35940.000000	79150.000000	51257.000000	104149.000000	569.000000	-7400.000000	-3418.000000	34.000000	30.000000	8.000000	-35.000000	-331.000000	-64.000000	0.185547	0.234375	0.263672	0.605469	1.000000	1.000000	1.000000	0.000000
8/25/2022	3:52:20 PM	118725.000000	183681.000000	39716.000000	66783.000000	36068.000000	79376.000000	50975.000000	103278.000000	494.000000	-7411.000000	-3445.000000	25.000000	44.000000	6.000000	-33.000000	-333.000000	-68.000000	0.190430	0.278320	0.258789	0.585937	1.000000	1.000000	1.000000	0.000000
8/25/2022	3:52:20 PM	118599.000000	183985.000000	39830.000000	66583.000000	35986.000000	79718.000000	50673.000000	100295.000000	496.000000	-7409.000000	-3467.000000	24.000000	34.000000	-7.000000	-26.000000	-330.000000	-67.000000	0.190430	0.273437	0.263672	0.600586	1.000000	1.000000	1.000000	0.000000
8/25/2022	3:52:20 PM	118725.000000	183985.000000	39702.000000	66703.000000	36010.000000	80702.000000	50882.000000	102705.000000	546.000000	-7408.000000	-3491.000000	24.000000	10.000000	-11.000000	-27.000000	-336.000000	-71.000000	0.200195	0.273437	0.263672	0.585937	1.000000	1.000000	1.000000	0.000000
8/25/2022	3:52:21 PM	117844.000000	183985.000000	39561.000000	66265.000000	35998.000000	79547.000000	51093.000000	102991.000000	572.000000	-7387.000000	-3443.000000	41.000000	11.000000	-13.000000	-28.000000	-333.000000	-70.000000	0.195312	0.268555	0.263672	0.571289	1.000000	1.000000	1.000000	0.000000
8/25/2022	3:52:21 PM	118094.000000	184290.000000	39406.000000	65872.000000	36033.000000	79263.000000	51257.000000	103086.000000	604.000000	-7402.000000	-3423.000000	28.000000	21.000000	-3.000000	-28.000000	-324.000000	-67.000000	0.185547	0.268555	0.263672	0.571289	1.000000	1.000000	1.000000	0.000000
8/25/2022	3:52:21 PM	119235.000000	184596.000000	39702.000000	65561.000000	35951.000000	79150.000000	51376.000000	103566.000000	536.000000	-7395.000000	-3502.000000	15.000000	45.000000	10.000000	-28.000000	-326.000000	-66.000000	0.166016	0.253906	0.268555	0.571289	1.000000	1.000000	1.000000	0.000000
8/25/2022	3:52:21 PM	118725.000000	183985.000000	39773.000000	65523.000000	35882.000000	79547.000000	51210.000000	103374.000000	550.000000	-7394.000000	-3499.000000	58.000000	24.000000	10.000000	-27.000000	-325.000000	-66.000000	0.166016	0.253906	0.268555	0.546875	1.000000	1.000000	1.000000	0.000000
8/25/2022	3:52:21 PM	117595.000000	184596.000000	40089.000000	65561.000000	36150.000000	79661.000000	50952.000000	102421.000000	504.000000	-7409.000000	-3425.000000	48.000000	21.000000	-7.000000	-28.000000	-323.000000	-67.000000	0.156250	0.239258	0.268555	0.556641	1.000000	1.000000	1.000000	0.000000
8/25/2022	3:52:21 PM	117969.000000	185212.000000	39902.000000	65833.000000	36103.000000	79150.000000	51519.000000	103760.000000	532.000000	-7412.000000	-3393.000000	23.000000	19.000000	-10.000000	-27.000000	-327.000000	-71.000000	0.156250	0.244141	0.263672	0.546875	1.000000	1.000000	1.000000	0.000000
8/25/2022	3:52:21 PM	118725.000000	183985.000000	39930.000000	65639.000000	36068.000000	78981.000000	51163.000000	102515.000000	541.000000	-7413.000000	-3464.000000	18.000000	31.000000	-8.000000	-29.000000	-326.000000	-66.000000	0.156250	0.229492	0.268555	0.541992	1.000000	1.000000	1.000000	0.000000
8/25/2022	3:52:21 PM	118852.000000	184596.000000	39959.000000	65794.000000	36138.000000	79263.000000	51210.000000	104936.000000	556.000000	-7396.000000	-3419.000000	33.000000	30.000000	-4.000000	-37.000000	-325.000000	-61.000000	0.166016	0.239258	0.268555	0.556641	1.000000	1.000000	1.000000	0.000000
8/25/2022	3:52:21 PM	118220.000000	184290.000000	40103.000000	66107.000000	36150.000000	79094.000000	51495.000000	102045.000000	525.000000	-7404.000000	-3465.000000	0.000000	28.000000	-9.000000	-36.000000	-331.000000	-65.000000	0.161133	0.239258	0.263672	0.532227	1.000000	1.000000	1.000000	0.000000
8/25/2022	3:52:21 PM	117470.000000	183985.000000	40380.000000	65561.000000	36045.000000	79490.000000	51140.000000	102421.000000	569.000000	-7394.000000	-3474.000000	39.000000	5.000000	-12.000000	-33.000000	-334.000000	-64.000000	0.156250	0.239258	0.263672	0.532227	1.000000	1.000000	1.000000	0.000000
8/25/2022	3:52:21 PM	118346.000000	183681.000000	40176.000000	65716.000000	36103.000000	79376.000000	50215.000000	102045.000000	630.000000	-7398.000000	-3496.000000	9.000000	12.000000	6.000000	-34.000000	-333.000000	-69.000000	0.146484	0.224609	0.268555	0.532227	1.000000	1.000000	1.000000	0.000000
8/25/2022	3:52:21 PM	118346.000000	184290.000000	40292.000000	65950.000000	36010.000000	79433.000000	51447.000000	102895.000000	582.000000	-7382.000000	-3489.000000	27.000000	34.000000	9.000000	-35.000000	-332.000000	-72.000000	0.136719	0.229492	0.263672	0.522461	1.000000	1.000000	1.000000	0.000000
8/25/2022	3:52:21 PM	117969.000000	183985.000000	40045.000000	66186.000000	35720.000000	79890.000000	51281.000000	103857.000000	439.000000	-7403.000000	-3446.000000	41.000000	47.000000	15.000000	-24.000000	-329.000000	-77.000000	0.161133	0.234375	0.268555	0.512695	1.000000	1.000000	1.000000	0.000000
8/25/2022	3:52:21 PM	118725.000000	184596.000000	40176.000000	66265.000000	35812.000000	79547.000000	51210.000000	101393.000000	489.000000	-7400.000000	-3425.000000	41.000000	8.000000	-6.000000	-25.000000	-326.000000	-84.000000	0.151367	0.244141	0.268555	0.507812	1.000000	1.000000	1.000000	0.000000
8/25/2022	3:52:21 PM	118094.000000	183076.000000	39887.000000	66305.000000	36045.000000	79319.000000	51187.000000	102045.000000	536.000000	-7408.000000	-3489.000000	29.000000	12.000000	-38.000000	-21.000000	-326.000000	-84.000000	0.151367	0.268555	0.263672	0.512695	1.000000	1.000000	1.000000	0.000000
8/25/2022	3:52:21 PM	117595.000000	183378.000000	40219.000000	65872.000000	35893.000000	79775.000000	51831.000000	102991.000000	608.000000	-7383.000000	-3476.000000	40.000000	12.000000	-13.000000	-17.000000	-333.000000	-82.000000	0.151367	0.258789	0.268555	0.488281	1.000000	1.000000	1.000000	0.000000
8/25/2022	3:52:21 PM	116730.000000	183378.000000	40103.000000	65911.000000	35928.000000	78702.000000	51187.000000	102610.000000	572.000000	-7404.000000	-3442.000000	46.000000	29.000000	-29.000000	-18.000000	-334.000000	-76.000000	0.156250	0.268555	0.263672	0.478516	1.000000	1.000000	1.000000	0.000000
8/25/2022	3:52:21 PM	117719.000000	183681.000000	39916.000000	65833.000000	36033.000000	78757.000000	50766.000000	102705.000000	504.000000	-7418.000000	-3415.000000	18.000000	34.000000	-1.000000	-19.000000	-330.000000	-74.000000	0.146484	0.253906	0.263672	0.493164	1.000000	1.000000	1.000000	0.000000
8/25/2022	3:52:21 PM	118472.000000	183076.000000	40045.000000	65407.000000	35917.000000	78925.000000	50766.000000	102705.000000	491.000000	-7400.000000	-3446.000000	26.000000	32.000000	-28.000000	-28.000000	-330.000000	-77.000000	0.136719	0.249023	0.263672	0.483398	1.000000	1.000000	1.000000	0.000000
8/25/2022	3:52:21 PM	117719.000000	182775.000000	40031.000000	65990.000000	35998.000000	79319.000000	50719.000000	101578.000000	589.000000	-7399.000000	-3499.000000	39.000000	1.000000	-28.000000	-35.000000	-328.000000	-75.000000	0.131836	0.253906	0.263672	0.473633	1.000000	1.000000	1.000000	0.000000
8/25/2022	3:52:21 PM	118094.000000	183076.000000	39745.000000	65755.000000	36435.000000	79150.000000	51022.000000	102515.000000	625.000000	-7393.000000	-3425.000000	33.000000	4.000000	-24.000000	-26.000000	-333.000000	-79.000000	0.126953	0.253906	0.263672	0.468750	1.000000	1.000000	1.000000	0.000000
8/25/2022	3:52:21 PM	118979.000000	183378.000000	39787.000000	65253.000000	36056.000000	79206.000000	50743.000000	102327.000000	615.000000	-7391.000000	-3426.000000	30.000000	21.000000	-2.000000	-31.000000	-337.000000	-80.000000	0.122070	0.244141	0.263672	0.463867	1.000000	1.000000	1.000000	0.000000
8/25/2022	3:52:21 PM	117969.000000	183681.000000	39873.000000	64986.000000	35975.000000	78702.000000	51093.000000	104051.000000	545.000000	-7396.000000	-3457.000000	24.000000	41.000000	-7.000000	-33.000000	-333.000000	-73.000000	0.126953	0.249023	0.263672	0.449219	1.000000	1.000000	1.000000	0.000000
8/25/2022	3:52:21 PM	117719.000000	184290.000000	39702.000000	65369.000000	36138.000000	78535.000000	50329.000000	102327.000000	537.000000	-7401.000000	-3488.000000	22.000000	42.000000	-11.000000	-29.000000	-326.000000	-74.000000	0.141602	0.253906	0.263672	0.463867	1.000000	1.000000	1.000000	0.000000
8/25/2022	3:52:21 PM	117470.000000	183378.000000	39702.000000	65990.000000	36045.000000	78813.000000	52295.000000	102800.000000	569.000000	-7405.000000	-3434.000000	45.000000	2.000000	-22.000000	-29.000000	-321.000000	-73.000000	0.131836	0.239258	0.268555	0.449219	1.000000	1.000000	1.000000	0.000000
8/25/2022	3:52:21 PM	117719.000000	183378.000000	39547.000000	65678.000000	36221.000000	78813.000000	51591.000000	101951.000000	598.000000	-7395.000000	-3407.000000	49.000000	16.000000	-20.000000	-24.000000	-324.000000	-77.000000	0.146484	0.249023	0.263672	0.434570	1.000000	1.000000	1.000000	0.000000
8/25/2022	3:52:21 PM	117969.000000	183985.000000	39518.000000	65755.000000	35824.000000	79376.000000	52592.000000	101024.000000	614.000000	-7357.000000	-3409.000000	19.000000	33.000000	-13.000000	-23.000000	-320.000000	-83.000000	0.151367	0.253906	0.258789	0.434570	1.000000	1.000000	1.000000	0.000000
8/25/2022	3:52:21 PM	117099.000000	183985.000000	39518.000000	65177.000000	35951.000000	78925.000000	52942.000000	101486.000000	560.000000	-7419.000000	-3520.000000	-3.000000	52.000000	-1.000000	-22.000000	-325.000000	-82.000000	0.161133	0.268555	0.263672	0.434570	1.000000	1.000000	1.000000	0.000000
8/25/2022	3:52:21 PM	118599.000000	183378.000000	39561.000000	65794.000000	36033.000000	78813.000000	52817.000000	101024.000000	604.000000	-7384.000000	-3518.000000	49.000000	0.000000	-22.000000	-23.000000	-328.000000	-81.000000	0.156250	0.268555	0.263672	0.424805	1.000000	1.000000	1.000000	0.000000
8/25/2022	3:52:21 PM	118472.000000	184290.000000	39351.000000	65484.000000	35951.000000	78535.000000	52099.000000	102233.000000	639.000000	-7404.000000	-3464.000000	51.000000	7.000000	-10.000000	-27.000000	-328.000000	-79.000000	0.151367	0.273437	0.268555	0.429687	1.000000	1.000000	1.000000	0.000000
8/25/2022	3:52:21 PM	117969.000000	183378.000000	39773.000000	65369.000000	35975.000000	78424.000000	52319.000000	102327.000000	576.000000	-7390.000000	-3414.000000	26.000000	53.000000	-1.000000	-27.000000	-329.000000	-75.000000	0.141602	0.258789	0.263672	0.419922	1.000000	1.000000	1.000000	0.000000
8/25/2022	3:52:21 PM	118599.000000	183681.000000	39844.000000	65330.000000	35917.000000	79263.000000	52295.000000	102610.000000	605.000000	-7386.000000	-3455.000000	38.000000	40.000000	2.000000	-21.000000	-328.000000	-77.000000	0.136719	0.258789	0.258789	0.400391	1.000000	1.000000	1.000000	0.000000
8/25/2022	3:52:21 PM	117595.000000	183681.000000	39816.000000	65292.000000	36103.000000	78757.000000	52917.000000	101024.000000	595.000000	-7408.000000	-3493.000000	22.000000	24.000000	-10.000000	-21.000000	-330.000000	-80.000000	0.131836	0.253906	0.268555	0.410156	1.000000	1.000000	1.000000	0.000000
8/25/2022	3:52:21 PM	117346.000000	183076.000000	39816.000000	65139.000000	35928.000000	79433.000000	51855.000000	101951.000000	635.000000	-7394.000000	-3446.000000	58.000000	8.000000	-7.000000	-25.000000	-326.000000	-79.000000	0.141602	0.253906	0.258789	0.395508	1.000000	1.000000	1.000000	0.000000
8/25/2022	3:52:21 PM	117719.000000	183076.000000	39930.000000	65639.000000	35986.000000	79319.000000	51663.000000	102139.000000	640.000000	-7404.000000	-3426.000000	33.000000	30.000000	6.000000	-26.000000	-326.000000	-76.000000	0.136719	0.268555	0.263672	0.390625	1.000000	1.000000	1.000000	0.000000
8/25/2022	3:52:21 PM	117844.000000	182775.000000	39973.000000	65024.000000	35835.000000	78479.000000	52817.000000	101301.000000	623.000000	-7374.000000	-3456.000000	31.000000	36.000000	13.000000	-35.000000	-329.000000	-73.000000	0.141602	0.258789	0.263672	0.395508	1.000000	1.000000	1.000000	0.000000
8/25/2022	3:52:21 PM	117346.000000	183378.000000	39844.000000	65024.000000	35975.000000	79037.000000	51928.000000	102421.000000	566.000000	-7398.000000	-3494.000000	29.000000	29.000000	3.000000	-34.000000	-329.000000	-73.000000	0.146484	0.249023	0.263672	0.375977	1.000000	1.000000	1.000000	0.000000
8/25/2022	3:52:21 PM	117844.000000	183076.000000	40161.000000	64986.000000	35893.000000	79490.000000	51591.000000	101301.000000	662.000000	-7403.000000	-3486.000000	37.000000	0.000000	12.000000	-28.000000	-324.000000	-79.000000	0.146484	0.268555	0.258789	0.366211	1.000000	1.000000	1.000000	0.000000
8/25/2022	3:52:21 PM	116120.000000	183076.000000	40161.000000	65253.000000	36056.000000	78702.000000	51759.000000	102705.000000	620.000000	-7418.000000	-3417.000000	51.000000	0.000000	11.000000	-34.000000	-321.000000	-79.000000	0.136719	0.268555	0.268555	0.371094	1.000000	1.000000	1.000000	0.000000
8/25/2022	3:52:21 PM	116607.000000	184290.000000	40161.000000	64721.000000	35835.000000	78981.000000	51928.000000	102139.000000	567.000000	-7405.000000	-3426.000000	17.000000	40.000000	36.000000	-35.000000	-327.000000	-81.000000	0.126953	0.258789	0.263672	0.356445	1.000000	1.000000	1.000000	0.000000
8/25/2022	3:52:21 PM	116853.000000	183985.000000	40395.000000	65100.000000	36021.000000	79206.000000	50650.000000	102421.000000	516.000000	-7402.000000	-3508.000000	35.000000	44.000000	15.000000	-25.000000	-329.000000	-84.000000	0.136719	0.292969	0.263672	0.351562	1.000000	1.000000	1.000000	0.000000
8/25/2022	3:52:21 PM	117099.000000	183985.000000	40263.000000	65177.000000	36115.000000	79490.000000	51352.000000	100841.000000	536.000000	-7418.000000	-3453.000000	58.000000	10.000000	0.000000	-25.000000	-327.000000	-80.000000	0.146484	0.297852	0.263672	0.346680	1.000000	1.000000	1.000000	0.000000
8/25/2022	3:52:21 PM	116607.000000	184596.000000	40336.000000	64872.000000	36150.000000	79433.000000	51116.000000	102045.000000	520.000000	-7424.000000	-3429.000000	33.000000	16.000000	-3.000000	-27.000000	-325.000000	-82.000000	0.136719	0.283203	0.263672	0.332031	1.000000	1.000000	1.000000	0.000000
8/25/2022	3:52:21 PM	116607.000000	184290.000000	40395.000000	65100.000000	36245.000000	79150.000000	51711.000000	102705.000000	521.000000	-7420.000000	-3492.000000	63.000000	34.000000	-6.000000	-23.000000	-320.000000	-81.000000	0.122070	0.283203	0.263672	0.322266	1.000000	1.000000	1.000000	0.000000
8/25/2022	3:52:21 PM	115277.000000	184290.000000	40205.000000	65369.000000	36256.000000	78925.000000	51567.000000	104051.000000	521.000000	-7400.000000	-3393.000000	57.000000	35.000000	-18.000000	-27.000000	-326.000000	-73.000000	0.126953	0.283203	0.258789	0.322266	1.000000	1.000000	1.000000	0.000000
8/25/2022	3:52:21 PM	116120.000000	183378.000000	40147.000000	64910.000000	36127.000000	79037.000000	50812.000000	103954.000000	566.000000	-7427.000000	-3448.000000	47.000000	5.000000	-12.000000	-27.000000	-333.000000	-79.000000	0.136719	0.278320	0.263672	0.312500	1.000000	1.000000	1.000000	0.000000
8/25/2022	3:52:21 PM	115878.000000	183076.000000	40103.000000	64721.000000	35963.000000	78757.000000	51022.000000	104344.000000	592.000000	-7405.000000	-3424.000000	37.000000	19.000000	-7.000000	-22.000000	-323.000000	-84.000000	0.131836	0.283203	0.258789	0.302734	1.000000	1.000000	1.000000	0.000000
8/25/2022	3:52:21 PM	115516.000000	183076.000000	39844.000000	65139.000000	36068.000000	78702.000000	51046.000000	103663.000000	564.000000	-7413.000000	-3420.000000	30.000000	40.000000	9.000000	-27.000000	-323.000000	-82.000000	0.131836	0.278320	0.263672	0.302734	1.000000	1.000000	1.000000	0.000000
8/25/2022	3:52:21 PM	115999.000000	183378.000000	39730.000000	65484.000000	36033.000000	78925.000000	50352.000000	101764.000000	539.000000	-7422.000000	-3423.000000	27.000000	44.000000	-7.000000	-28.000000	-330.000000	-83.000000	0.166016	0.307617	0.263672	0.273437	1.000000	1.000000	1.000000	0.000000
8/25/2022	3:52:21 PM	116363.000000	183076.000000	39702.000000	66068.000000	36209.000000	78813.000000	51140.000000	101578.000000	583.000000	-7415.000000	-3426.000000	38.000000	7.000000	-10.000000	-25.000000	-329.000000	-82.000000	0.161133	0.302734	0.263672	0.263672	1.000000	1.000000	1.000000	0.000000
8/25/2022	3:52:21 PM	116363.000000	183378.000000	39462.000000	65253.000000	36221.000000	79376.000000	50443.000000	101671.000000	655.000000	-7398.000000	-3453.000000	27.000000	20.000000	-7.000000	-24.000000	-319.000000	-81.000000	0.146484	0.292969	0.263672	0.268555	1.000000	1.000000	1.000000	0.000000
8/25/2022	3:52:21 PM	116485.000000	183378.000000	39462.000000	65600.000000	36056.000000	78981.000000	50650.000000	102327.000000	557.000000	-7416.000000	-3452.000000	35.000000	48.000000	16.000000	-19.000000	-320.000000	-81.000000	0.141602	0.288086	0.263672	0.253906	1.000000	1.000000	1.000000	0.000000
8/25/2022	3:52:21 PM	116730.000000	183076.000000	39873.000000	65484.000000	36010.000000	79433.000000	50627.000000	101578.000000	545.000000	-7420.000000	-3435.000000	36.000000	39.000000	-10.000000	-19.000000	-335.000000	-83.000000	0.151367	0.297852	0.263672	0.234375	1.000000	1.000000	1.000000	0.000000
8/25/2022	3:52:21 PM	116363.000000	183076.000000	39830.000000	65215.000000	36021.000000	79433.000000	50034.000000	100750.000000	536.000000	-7405.000000	-3408.000000	46.000000	17.000000	7.000000	-19.000000	-338.000000	-81.000000	0.136719	0.288086	0.258789	0.244141	1.000000	1.000000	1.000000	0.000000
